File Name: Lab1_2_EMG_data_EduExo_2021_09_15.log
Channel 1: 'EMG 1', 40404 values, engineering units: mV, no filters.
Channel 2: 'EMG 2', 40404 values, engineering units: mV, no filters.

0.003	-0.0203
0.0052	-0.039
0.0052	-0.0413
0.0022	0.0082
0.0045	0.0382
0.0082	0.024
0.0105	-0.015
0.0082	-0.0795
0.0052	-0.114
0.003	-0.093
0.0037	-0.0075
0.0097	0.0487
0.0105	0.1357
0.012	0.2895
0.009	0.3105
0.006	0.0915
0.009	-0.0488
0.0052	-0.0638
0.0037	-0.0938
0.0045	-0.0315
0.0052	-0.0608
0.006	-0.0585
0.0045	-0.0473
0.0067	-0.0765
0.0097	-0.0795
0.0082	-0.1118
0.0067	-0.0458
0.0052	-0.0015
0.0007	-0.0495
-0.0008	-0.0871
0.003	-0.0218
0.0037	0.0127
0.0052	0.0142
0.0082	0.0457
0.0075	0.081
0.0067	0.0967
0.0082	0.069
0.0075	0.0862
0.003	0.0915
0.009	0.111
0.0105	0.0825
0.0075	0.0375
0.009	0.0465
0.0067	0.006
0.0052	0.006
0.0037	0.0105
0.0045	0.0022
0.006	-0.0256
0.0022	-0.0428
0.003	-0.0225
0.0045	-0.0405
0.0015	-0.0668
0.0037	-0.0608
0.0067	-0.0683
0.0045	-0.105
0.0045	-0.06
0.0045	-0.0195
0.0007	-0.0323
0.0015	0.093
0.0037	0.1642
0.0022	0.1275
0.0015	0.1605
0.0037	0.2017
0.003	0.1665
0.0045	0.0082
0.0067	-0.0383
0.0052	-0.0256
0.003	-0.0623
0.0022	-0.0615
0.0075	-0.093
0.006	-0.0473
0.0037	-0.0563
0.006	-0.0788
0.006	-0.039
0.0067	-0.0548
0.009	-0.0091
0.0067	-0.0188
0.0082	-0.0473
0.009	-0.0135
0.0045	0.0255
0.003	0.0262
0.003	-0.033
-0.0008	-0.0473
0.003	-0.0765
0.0015	-0.078
-0.0015	-0.0818
0.0022	-0.1043
0.0075	-0.0548
0.0112	0.0412
0.009	0.15
0.0037	0.111
0.0007	0.003
0.0015	0.0082
0.0015	0.012
0.003	0.0082
0.003	0.0262
0.0037	0.0465
0.0075	0.0585
0.0082	0.1207
0.0067	0.1245
0.003	0.0202
0.003	0.0015
0.003	-0.057
0.0067	-0.0803
0.006	-0.0856
0.0037	-0.219
0.009	-0.27
0.0052	-0.2011
0.0037	-0.1253
0.0015	-0.0428
0.006	0.0592
0.0052	0.1642
0.003	0.2722
0.0067	0.3525
0.0067	0.2775
0.0045	0.1035
0.0045	0.0457
0.0052	-0.027
0.0015	-0.1148
0.0052	-0.0915
0.006	-0.054
0.0037	-0.0165
0.009	-0.0188
0.012	-0.0555
0.0157	-0.0683
0.0142	-0.0436
0.0127	-0.0495
0.0112	-0.0436
0.0082	-0.0218
0.003	-0.0023
0	0.0052
0.0052	-0.0203
0.0052	-0.0278
0.0067	0.0067
0.0082	0.0645
0.006	0.0172
0.006	-0.057
0.0067	-0.0413
0.003	-0.0308
0.0022	-0.0623
0.0022	-0.1253
0.0007	-0.1148
-0.0015	0.0232
-0.0008	0.1477
0.0007	0.2092
0.0007	0.168
0.0037	0.1582
0.0007	0.2085
0.003	0.2317
0.0045	0.1875
0.0022	0.024
0.0045	-0.0188
-0.0015	-0.0346
0.0007	-0.0983
0.003	-0.0863
0.0015	-0.0945
0.0007	-0.084
0.0007	-0.0675
0.0045	-0.0706
0.006	-0.0623
0.0075	-0.0728
0.006	-0.0735
0.0052	-0.0256
0.003	-0.0015
0.0022	-0.0503
0.0052	-0.0548
0.003	-0.0285
0.0045	-0.0285
0.0052	-0.0046
0.0022	0.0105
0.0037	0.0165
0.0045	0.078
0.0052	0.1672
0.0097	0.195
0.0097	0.0802
0.0067	0.0007
0.0015	-0.0046
0.0037	-0.0405
0.0052	-0.0361
0.0052	-0.0375
0.009	-0.0203
0.0052	-0.0008
0.0045	-0.0128
0.0045	-0.015
0.003	-0.0458
0.0067	-0.0533
0.006	-0.0203
0.009	-0.0495
0.012	-0.0675
0.009	-0.0203
0.0045	0.0105
0.0045	0.0532
0.006	0.0607
0.006	0.0112
0.006	0.0187
0.0067	0.0562
0.003	0.0682
0.0037	0.0705
0.0045	0.0375
0.0007	0.0202
0.0015	0.0757
-0.0015	0.0547
-0.0015	0
0.0037	-0.0038
0.0015	-0.006
0.0022	-0.0256
0.0067	-0.0683
0.0105	-0.0645
0.0105	-0.0203
0.0015	-0.03
0.0015	-0.0563
0.003	-0.0398
0.0007	-0.0503
0.0052	-0.0488
0.0067	-0.0473
0.0082	-0.0563
0.009	-0.0248
0.0105	-0.0173
0.0112	-0.0165
0.0045	-0.0038
0.0052	0.0187
0.0075	0.0315
0.0067	0.0247
0.0075	0.0142
0.012	0.0007
0.0112	0.0082
0.006	0.0307
0.0045	0.0412
0.003	0.036
0.0045	0.0105
0.0052	0.0277
0.0082	0.1357
0.0052	0.177
-0.0015	0.0382
-0.0038	-0.0346
-0.0023	-0.1208
-0.0015	-0.195
-0.0015	-0.0893
-0.0008	-0.0728
0.0007	-0.1328
0.0045	-0.1238
0.012	-0.054
0.006	-0.0758
0.0015	-0.0188
0.0052	0.1372
0.0097	0.1552
0.012	0.2445
0.0052	0.2865
0.0052	0.21
0.0045	0.0202
0.003	-0.0833
0.0052	-0.0465
0.0052	-0.1028
0.003	-0.0968
0.0007	-0.1148
0.0082	-0.06
0.012	0.0645
0.0105	0.0772
0.0097	-0.0353
0.0067	-0.1208
0.0067	-0.111
0.0052	-0.135
0.0015	-0.0698
0.0015	-0.0511
0.0052	0
0.0052	0.0765
0.0037	0.0675
0.003	0.0757
0.003	0.0667
0.0015	0.1035
0.0052	0.0892
0.006	0.057
0.0045	0.0547
0.0037	0.0525
0.009	0.0487
0.009	0.057
0.003	0.09
0.0052	0.0652
0.0067	0.057
0.0045	0.0802
0.0015	0.057
0.0022	-0.0105
0.0082	-0.0473
0.0052	-0.027
-0.0008	-0.0428
0.0015	-0.0975
0.0007	-0.0856
-0.0015	-0.0413
0.0067	-0.0046
0.009	0.075
0.0082	0.1192
0.009	0.1215
0.0082	0.1267
0.0082	0.012
0.0075	-0.0533
0.0037	-0.0975
0.0082	-0.15
0.0075	-0.1148
0.003	-0.1215
0.0015	-0.0803
0.0022	-0.0361
0.003	-0.0338
0.0045	-0.012
0.0015	-0.0046
-0.0008	-0.027
0.0015	-0.0113
-0.0008	-0.0128
0.0015	0.006
0.0037	0.0525
0.0067	0.066
0.0097	0.1012
0.0067	0.0277
0.0067	-0.0818
0.0052	-0.0915
0.006	-0.0525
0.0067	-0.0405
0.0022	-0.0436
0.0037	-0.0181
0.0045	0.0315
0.003	0.0712
0.0022	0.0757
0.0037	0.0112
0.0052	-0.0863
0.0067	-0.0563
0.0142	-0.012
0.0142	0.054
0.0082	0.0735
0.0075	-0.0968
0.006	-0.1763
0.0022	-0.1823
0.0015	-0.159
0.003	-0.0998
0.003	-0.0436
0.0067	0.045
0.0067	0.165
0.0067	0.3892
0.0067	0.4597
0.006	0.2872
0.0067	0.1312
0.009	0.0562
0.0052	0.027
0.0022	0.0037
0.0015	-0.0473
0.0007	-0.1485
0.0022	-0.1665
0	-0.1073
0.0007	-0.0728
0.0045	-0.0765
0.0075	-0.0511
0.009	-0.0443
0.0052	-0.0848
0.0067	-0.0608
0.0067	-0.024
0.0105	-0.006
0.0097	0.012
0.006	0.0525
0.0075	0.0135
0.0067	-0.0038
0.0052	-0.0015
0.0067	-0.0585
0.0045	-0.0353
0.0037	-0.0278
0.0037	-0.0413
-0.0008	-0.0593
0.0075	-0.0698
0.0097	0.0135
0.0075	0.0952
0.0082	0.0517
0.0007	0.0045
-0.0008	0.0187
0.003	-0.0023
0.0052	0.0157
0.003	0.0562
0.0045	0.078
0.0067	0.12
0.0052	0.1155
0.0067	0.066
0.003	0.0607
-0.0015	0.0525
-0.003	0.015
0	-0.0113
0.0007	-0.03
0.003	-0.024
0.0052	-0.0465
0.003	-0.1021
0.0075	-0.207
0.0082	-0.2963
0.0067	-0.2378
0.003	-0.1253
-0.0068	-0.006
-0.0046	0.018
0.0022	0.0435
0.003	0.162
0.0052	0.3007
0.009	0.3195
0.0067	0.1162
0.0037	-0.0256
0.0052	-0.0645
0.0037	-0.0683
0.003	0.0015
0.0045	-0.0038
0.0052	0.0022
0.0007	-0.0015
-0.0008	-0.0488
-0.0008	-0.0105
-0.0023	0.0097
0.0007	-0.012
0.0007	-0.0098
0.0007	0.03
0.0007	0.0435
0.0045	0.078
0.006	0.132
0.0045	0.0667
0.0067	0.0082
0.0082	0.0952
0.0067	0.0952
0.0082	-0.0113
0.0127	0.0082
0.0075	0.009
0.0045	-0.024
0.0052	-0.0473
0.0067	-0.0698
0.0097	-0.0675
0.0075	-0.0721
0.003	-0.123
0.003	-0.2085
0.0045	-0.1381
0.0037	-0.0923
0.009	-0.0398
0.0067	0.0277
0.0037	0.0517
0.006	0.2205
0.006	0.2977
0.0097	0.1807
0.0127	-0.0248
0.0075	-0.0555
0.0052	-0.0181
0.003	-0.0721
0.0037	-0.063
0.0082	-0.0645
0.0045	-0.0046
0.0097	0.0937
0.0097	0.1545
0.0022	0.1072
0.0015	0.063
0.0045	0.0832
0.0052	0.0472
0.0045	0.0495
0.003	0.018
0.0045	0.0015
0.0082	-0.0525
0.0052	-0.2453
0.0052	-0.3383
0.0037	-0.2505
0.0052	-0.132
0.0067	-0.0046
0.0045	0.0757
0.0022	0.0472
0.0022	0.1095
0.0082	0.1245
0.0082	0.0157
0.006	0.0337
0.0007	0.0217
0.0037	-0.0038
0.0067	0.0307
0.0052	0.045
0.006	0.0727
0.0045	0.0397
0.0045	-0.0443
0.0045	-0.1515
0.006	-0.1493
0.0022	-0.0593
0.003	0.0195
0.0045	0.057
0.0075	0.0202
0.0105	0.0885
0.0045	0.2325
0.0067	0.3307
0.0045	0.207
0.0067	-0.0285
0.009	-0.039
0.0015	0.0397
-0.0008	0.0262
0.003	0.0127
0.0052	-0.0293
0.0037	-0.153
0.0052	-0.1763
0.0052	-0.186
0.0075	-0.294
0.003	-0.315
-0.0038	-0.2348
-0.0038	-0.1935
-0.0008	-0.1553
0.0052	-0.0436
0.0067	0.0802
0.009	0.276
0.009	0.4545
0.0067	0.3562
0.003	0.1117
0.0022	0.0877
0.003	0.093
0.006	0.0457
0.009	0.0315
0.0045	-0.0173
0.0045	0.0082
0.0045	-0.0338
0.003	-0.0593
0.0052	-0.0743
0.009	-0.1328
0.0082	-0.1515
0.0075	-0.126
0.006	-0.0443
0.0045	-0.015
0.0075	0.009
0.0037	0.0285
0.0052	-0.0083
0.0045	-0.003
0.003	0.03
0.0045	0.051
0.0015	0.0615
0.003	0.036
0	0.0135
0.0015	0.0015
0.0045	-0.0248
0.0052	-0.0443
0.0082	-0.09
0.0082	-0.0998
0.0075	-0.0091
0.0045	0.0247
0.003	0.0285
0.0022	0.0705
0.0045	0.0487
0.0037	0.0217
0.0037	0.0585
0.006	0.0337
0.0015	-0.0398
0.0037	-0.0585
0.0045	-0.0188
0.0037	0.0622
0.003	0.0817
0.0045	0.069
0.006	0.0825
0.0067	0.0765
0.009	0.0285
0.0052	0.0127
0.0045	0.0495
0.0037	-0.0218
0.006	-0.0353
0.0052	-0.0293
0.0052	-0.0285
0.009	0.012
0.0052	0.003
0.0052	0.015
0.0082	0.0127
0.0082	0.0645
0.006	0.111
0.0045	0.045
0.006	-0.093
0.0045	-0.225
0.0045	-0.2738
0.003	-0.2093
0.003	-0.0975
0.0067	0.0007
0.0082	0.1365
0.0105	0.2242
0.012	0.2175
0.0052	0.1507
0.0052	0.1357
0.0075	0.0607
0.0067	-0.0233
0.0082	-0.0511
0.0105	-0.0893
0.0127	0.0525
0.009	0.084
0.0045	-0.015
0.0067	-0.045
0.0105	-0.0683
0.0082	-0.0803
0.003	-0.084
0.003	-0.0623
0.0007	-0.0413
-0.003	-0.0188
-0.003	-0.0068
0.0037	0.0105
0.009	0.0397
0.0075	0.0832
0.0045	0.099
0.0015	0.0315
0.0037	-0.0465
0.0067	-0.0721
0.0075	-0.0645
0.009	-0.0818
0.0112	-0.0743
0.0105	-0.048
0.0082	-0.024
0.0052	0.0015
0.0007	0.0172
-0.0015	0.0165
0.0015	0.0052
0	0.0487
0.0007	0.03
0.0022	-0.0038
0.0022	-0.024
-0.0015	-0.0091
-0.0023	0.0675
0	0.045
0.0015	0.036
0.0015	0.0037
0.0015	0.0307
0	0.0517
0.0022	-0.0443
0.0067	-0.1035
0.0022	-0.1508
0.0045	-0.132
0.009	-0.0818
0.006	0.0105
0.0075	0.0667
0.009	0.0727
0.009	0.213
0.009	0.285
0.0082	0.1695
0.0082	0.0052
0.0105	-0.024
0.0052	-0.0293
0.0052	-0.0458
0.0067	-0.0046
0.0045	-0.027
0.0052	-0.0128
0.0015	-0.0181
0.0015	-0.0293
0.003	-0.015
0.003	-0.0338
0.0067	-0.0158
0.003	-0.0315
0	-0.0338
0.003	-0.0068
0.0082	0.003
0.009	-0.0053
0.006	-0.0225
0.0045	-0.0233
0.0052	-0.0256
0.0067	-0.0068
0.0052	-0.0188
0.0015	0.0045
-0.0008	0.0292
0.0007	0.0097
0.0045	0.045
0.0052	0.0322
0.0045	0.0382
0.0007	0.051
0.0007	0.0315
-0.0015	0.0495
-0.0008	0.0285
0.0022	-0.0188
-0.0008	-0.057
0.0045	-0.0975
0.0097	-0.1088
0.0067	-0.1035
0.009	-0.0998
0.012	-0.0863
0.0105	-0.0608
0.0112	-0.0113
0.0082	0.036
0.0097	0.033
0.0082	0.033
0.0045	0.036
0.0052	0.012
0.0082	-0.0143
0.009	-0.024
0.0052	0.0015
0.0052	0.0262
0.0045	0.051
0.003	0.0615
0.0037	0.0345
0.0045	0.0375
0.003	0.0352
-0.0008	0.0285
0.0007	0.0067
0.0022	0.0195
0.0052	0.0217
0	0.0082
0	0.0367
0.0045	0.0255
0.003	-0.0195
0.0037	-0.063
0.0007	-0.1635
0.003	-0.2791
0.0045	-0.228
0.003	-0.12
0.006	-0.0053
0.0082	0.1552
0.0097	0.2227
0.0135	0.2955
0.0165	0.5175
0.012	0.5505
0.0067	0.2655
0.0022	0.0337
0.0037	-0.0923
0.006	-0.126
0.0015	-0.1403
0.0037	-0.1163
0.0007	-0.0653
0.003	-0.066
0.0045	-0.0165
0.0037	0.036
0.0105	0.1485
0.0112	0.1222
0.0052	-0.0278
0.0007	-0.0998
0.0015	-0.1418
0.0015	-0.0863
0.0007	-0.0863
0.0037	-0.1028
0.0045	-0.0863
0.0045	-0.096
0.009	-0.0698
0.009	-0.0533
0.0082	-0.0458
0.0082	-0.0653
0.0067	-0.0533
0.0045	-0.021
0.0045	0.0067
0.0015	0.0022
0.0037	-0.039
0.0067	-0.0128
0.0082	-0.0105
0.0082	-0.0443
0.0067	-0.078
0.0112	-0.0458
0.012	-0.003
0.009	-0.0165
0.0082	-0.0195
0.006	-0.0143
0.009	0.0292
0.0067	0.0637
0.0067	0.0757
0.0082	0.0682
0.0022	0.045
0.0045	0.066
0.0045	0.0585
0.0007	0.051
-0.003	0.0562
0.003	0.0322
0.0045	0.0442
0.0007	0.0585
0.0007	0.036
0.0022	0.0262
0.0052	0.024
0.0052	-0.0046
0.0082	-0.0263
0.0052	-0.0308
0.0015	-0.015
0.003	-0.0323
0.003	-0.0105
0.0052	0.009
0.0075	-0.0165
0.0082	-0.0203
0.0052	-0.0368
0.0045	-0.0361
0.0007	-0.0195
0.0007	0.006
0.0007	0.006
0.003	0.0127
0.0052	0.0367
0.0052	-0.0008
0.0045	-0.0721
0.0037	-0.0908
0.003	-0.0945
0.0015	-0.099
0.0015	-0.0361
0	0.0052
-0.0015	0.0375
0.0022	0.1027
0.0075	0.1342
0.0052	0.0577
0.0015	-0.015
0.0037	-0.003
0.0052	-0.0053
0.003	0.0142
-0.0015	-0.066
0.0015	-0.1095
0.0052	0.0405
0.009	0.1665
0.0082	0.1852
0.003	0.132
0.0052	0.0892
0.0052	-0.0015
0.0045	0.006
0.0045	0.0937
0.0067	-0.0548
0.009	-0.1515
0.0075	-0.054
0.0082	0.0622
0.0082	0.1035
0.009	0.1425
0.0037	0.2452
0.003	0.0772
0.0082	-0.0398
0.0052	0.0225
0.0075	-0.078
0.0067	-0.0593
0.0045	-0.0458
0.0037	-0.0473
0.0067	-0.0353
0.0082	-0.0735
0.0067	-0.105
0.0097	-0.114
0.012	-0.0915
0.009	-0.1088
0.0045	-0.0825
0.0052	-0.0721
0.0045	-0.0511
0.0052	-0.03
0.0082	-0.0361
0.006	-0.0353
0.0045	-0.0428
0.0022	-0.015
0.0037	-0.0353
0.0052	-0.0405
0.0007	-0.0233
0.0015	-0.0285
0.0045	-0.0165
0.003	0.039
0	0.0165
0.0015	-0.03
0.003	-0.0278
0.0007	-0.021
-0.0023	0.0412
-0.0008	0.0705
0.0015	0.0742
0	0.0727
0.0015	0.063
0.0022	0.0742
0.0007	0.039
0.003	0.024
0.003	-0.0361
0.0045	-0.0893
0.0067	-0.0188
0.0045	0.0367
0.0067	0.0315
0.0082	0.015
0.0037	0
0.0052	0.051
0.009	0.129
0.0075	0.1095
0.0052	0.018
0.0075	0.0052
0.0105	0.0127
0.0127	-0.0083
0.012	0.0277
0.0097	0.0412
0.0075	0.024
0.006	0.0195
0.0105	-0.0158
0.0075	-0.0458
0.0082	-0.0623
0.009	-0.0728
0.0052	-0.1058
0.0037	-0.1021
-0.0008	-0.0511
0.003	0.0052
0.0052	0.072
0.0022	0.1335
0.0052	0.2107
0.0082	0.309
0.0052	0.2662
0.0037	0.0135
0.006	-0.2153
0.0045	-0.2453
0.0052	-0.1598
0.0022	-0.0503
0.003	-0.0165
0.0037	-0.0098
0.0045	0.0337
0.0112	0.0997
0.0067	0.1852
0.0067	0.1365
0.0022	0.0232
0.0015	0.0015
0.0015	-0.0436
0.0007	-0.0668
0.0052	-0.0361
0.003	-0.066
0.003	-0.0608
0.0022	-0.0495
-0.0008	-0.048
-0.0023	-0.0383
0.0015	-0.0338
0.0037	-0.0181
0.0015	-0.03
0.0015	0.003
0.0022	0.072
0.0082	0.1065
0.0067	0.051
0.0037	-0.0038
0.0052	0.009
0.0007	-0.0698
0.0007	-0.1575
0.0015	-0.123
-0.0008	-0.0375
-0.0008	-0.0511
0.0045	-0.165
0.0037	-0.2761
0.0045	-0.252
0.0067	-0.1088
0.0075	-0.0368
0.0067	-0.0135
0.006	0.0367
0.0082	0.1125
0.0022	0.2302
0.009	0.3187
0.0082	0.2445
0.012	0.1102
0.018	0.1642
0.0075	0.1747
0.0067	0.0787
0.0082	0.0525
0.0067	0.0277
0.0052	0.0142
0.0022	-0.0143
0.006	-0.03
0.0067	-0.057
0.0037	-0.1021
0.0052	-0.0856
0.0067	0.006
0.0022	0.072
0.003	0.0337
0.0082	0.0127
0.009	0.006
0.0052	-0.0053
0.003	-0.012
0.0067	-0.0488
0.0105	-0.1148
0.0082	-0.1741
0.003	-0.1568
0.0015	-0.1343
0.0022	-0.1553
0.0052	-0.1185
0.0015	-0.084
0.0015	-0.0728
0.0045	-0.0428
0.0045	-0.0398
0.006	-0.0315
0.0067	0.0165
0.0067	0.0727
0.0097	0.177
0.0142	0.2917
0.009	0.2625
0.0075	0.0427
0.0067	-0.1245
0.0015	-0.084
0.003	-0.0098
0.0045	0.0382
0.0052	0.0937
0.0022	0.1267
0.003	0.1575
0.0015	0.2152
-0.0023	0.2475
-0.0008	0.1455
0.0007	0.0405
0.0007	0.0315
-0.0015	-0.0015
-0.0008	-0.0795
0.0007	-0.0998
0.0022	-0.1021
0.006	-0.1441
0.0082	-0.1358
0.0045	-0.0608
0	0.003
0.0015	0.0165
0.003	-0.0038
0.0022	-0.0375
0.0045	-0.0338
0.0052	0.0052
0.0075	0.0082
0.0052	-0.0278
0.0015	-0.0218
0.003	0.036
0.003	0.0682
0.0045	0.0562
0.0067	-0.0428
0.0082	-0.1035
0.009	-0.0525
0.0105	-0.0495
0.0082	-0.0675
0.003	-0.0833
0.0097	-0.0293
0.0105	0.1162
0.009	0.2152
0.0105	0.2167
0.0075	0.0472
0.0075	-0.0436
0.0105	-0.0361
0.0037	-0.1515
0.0015	-0.1523
0.006	-0.1215
0.003	-0.0938
0.0045	-0.0383
0.0037	-0.0143
0.0045	0.0405
0.0097	0.021
0.0082	0.021
0.0075	0.0495
0.0045	0.066
0.0015	0.081
0.0037	0.0697
0.0022	0.0615
0.0045	0.018
0.0045	0.015
0.0037	0.0082
0.0045	-0.0038
0.0037	0.0067
0.0045	-0.0038
0.0045	0.0127
0.0052	-0.015
0.0045	-0.0525
0.0022	-0.0563
0.0015	-0.078
0.003	-0.093
0.0052	-0.1065
0.0052	-0.057
0.003	0.027
0.0015	0.0802
0.0045	0.1012
0.0052	0.0742
0.0082	0.1072
0.012	0.1912
0.0075	0.132
0.0067	-0.0653
0.0067	-0.0863
0.0045	0.036
0.0045	0.072
0.0052	0.1072
0.0067	0.0892
0.0075	0.0832
0.012	0.1687
0.012	0.0742
0.0075	-0.1418
0.0045	-0.1853
0.003	-0.1365
0.006	-0.0878
0.0045	-0.0548
0.0067	-0.0353
0.006	-0.0053
0.0052	-0.054
0.0052	-0.054
0.0052	-0.0315
0.0067	-0.0181
0.0045	-0.0023
0.006	-0.0818
0.0067	-0.1006
0.0082	-0.0938
0.0097	-0.0413
0.0097	0.0735
0.0052	0.1297
-0.0008	0.1005
0.0045	0.0712
0.0045	0.0435
0.0022	-0.0091
0.0045	-0.0135
0.0052	-0.0263
0.0052	0.0015
0	-0.003
0	-0.0713
0.0015	-0.1635
0.003	-0.1673
-0.0015	-0.1043
0.0007	-0.0706
0.0052	-0.0068
0.0045	0.0315
0.0105	0.1372
0.0157	0.3105
0.0105	0.3555
0.0045	0.1822
0.0052	0.0427
0.0075	0.0082
0.0037	-0.0893
0.003	-0.0773
0.003	-0.0668
0.0007	-0.0923
-0.0008	-0.0706
-0.0015	-0.0503
0.003	-0.0046
0.0022	-0.0278
0.0015	-0.054
0.003	-0.0525
0.0015	-0.0375
0.0015	-0.0143
0.0007	0.015
0.0007	0.0217
0.0022	0.0277
0.0022	0.0487
0.0045	0.0225
0.0067	0.0427
0.003	0.0255
0.0045	-0.0555
0.0045	-0.1013
0.0022	-0.0743
0.0037	-0.039
0.003	-0.03
0.0045	0
0.0067	0.0405
0.0052	0.1102
0.003	0.1987
0.0082	0.2572
0.0075	0.1815
0.0075	0.03
0.0052	-0.0285
0.0052	-0.0361
0.006	-0.0856
0.0015	-0.0908
0.0052	-0.0638
0.0007	-0.0413
0.0067	-0.0203
0.0112	-0.0195
0.0082	-0.0195
0.012	0.003
0.006	0.0855
0.0052	0.0652
0.0067	-0.0361
0.012	-0.0398
0.009	-0.03
0.006	-0.0143
0.006	-0.0488
0.0037	-0.0323
0.0022	-0.0195
0.0022	-0.0908
0.0045	-0.1275
0.0045	-0.0968
0.0052	-0.006
0.0045	0.0397
0.0037	0.1057
0.0015	0.1207
0.0007	0.0802
0.0007	0.1177
-0.0015	0.1665
-0.0008	0.0525
0.0015	-0.0465
0.003	-0.012
0.0052	-0.0428
0.003	-0.0293
0.0022	-0.0428
0.0015	-0.0668
-0.0008	-0.0563
0.003	-0.105
0.0015	-0.1268
0.0022	-0.0953
0.003	-0.0675
0.0067	-0.042
0.009	0.0817
0.0045	0.0907
0.0015	0.0262
0.0022	0.0622
0.006	0.084
0.0082	0.1087
0.006	0.0757
0.0052	0.0667
0.0105	0.0885
0.0067	0.0697
0.0052	0.0765
0.0105	0.0697
0.009	-0.0098
0.0082	-0.1455
0.0082	-0.1485
0.0082	-0.1381
0.0052	-0.1343
0.003	-0.0443
0.0037	0.0382
0.0045	0.1387
0.0052	0.2362
0.0075	0.2115
0.0052	0.0082
0.0052	-0.0683
0.0037	-0.0361
0.0045	-0.0706
0.0052	-0.039
0.006	-0.0645
0.0127	-0.0256
0.0127	0.1192
0.009	0.1672
0.0052	0.0525
0.006	-0.1478
0.0082	-0.2955
0.0045	-0.2565
0.003	-0.1388
0.003	-0.126
0.0015	-0.111
0.0052	-0.0833
0.0037	0.09
0.0015	0.2572
0.0067	0.3037
0.0015	0.3127
-0.0046	0.1282
-0.0008	-0.0046
0.0022	-0.0375
0.0052	-0.0758
0.0045	-0.0008
0.003	-0.015
0.0075	-0.0443
0.006	-0.0091
0.0052	-0.0353
0.009	0.0015
0.0067	0.018
0.003	0.0135
0.0037	0.0157
0.0007	-0.0105
0.0015	-0.0008
0.003	-0.0068
0.0045	-0.0113
0.0045	-0.0203
0.003	-0.0323
0.0067	-0.0361
0.0037	-0.0758
0.0007	-0.0728
0.003	-0.0315
0.003	-0.0323
0.0052	-0.0203
0.0052	0.0202
0.0007	0.018
0.0022	0.0127
0.0037	0.0067
0.0045	0.0022
0.009	0.0292
0.009	0.0285
0.0082	0.0007
0.0097	-0.0165
0.009	-0.003
0.0067	-0.0225
0.0052	-0.0428
0.006	-0.0203
0.0045	-0.0128
0.003	-0.0046
0.0052	-0.003
0.0097	0.0285
0.0105	0.075
0.009	0.1387
0.009	0.1305
0.0045	0.0877
0.0075	0.1035
0.0082	0.0637
0.009	0.03
0.0105	0.0322
0.0105	0.0187
0.0067	0.0592
-0.0015	0.1215
-0.0008	0.1125
0.0045	0.024
0.003	-0.0563
0.0022	-0.1193
0.0045	-0.1238
0.009	-0.1245
0.0112	-0.1298
0.0067	-0.093
0.0067	-0.0915
0.0075	-0.0698
0.0052	-0.0706
0.0082	-0.1598
0.0097	-0.246
0.0082	-0.2528
0.003	-0.1988
0.003	-0.1343
0.0052	0.0352
0.0067	0.1335
0.006	0.1222
0.0015	0.1965
0.0052	0.294
0.0052	0.3142
0.0022	0.0615
0.0015	-0.0525
-0.0046	0.072
-0.0046	0.1035
-0.0015	0.2085
0.0022	0.2092
0.0007	0.1515
-0.0023	0.1012
-0.0015	-0.0165
-0.0015	-0.099
-0.0008	-0.1148
-0.0015	-0.0938
0.0007	-0.1021
0.0082	-0.084
0.0075	-0.0698
0.0037	-0.0795
0.0052	-0.105
0.0052	-0.0825
0.0007	-0.0691
0.0015	-0.0645
0.0067	-0.0495
0.0082	-0.0346
0.006	-0.0105
0.0022	-0.012
0.003	-0.0023
0.0052	0.0015
0.006	0.0195
0.009	0.0082
0.0075	-0.0533
0.0082	-0.078
0.0052	-0.039
0.0037	0.0105
0.0075	0.0187
0.0052	0.0352
0.003	0.0337
0.0037	0.0427
0.0007	0.048
0.0037	0.0472
0.003	0.0495
-0.0008	0.0142
-0.0008	0.057
0.0015	0.1177
0.006	0.1507
0.009	0.1545
0.0127	0.0817
0.009	0.0562
0.0112	0.0397
0.018	0.0142
0.009	-0.0128
0.0105	-0.0428
0.0097	-0.0525
0.0045	-0.0706
0.0052	-0.0818
0.003	-0.0698
0.0082	-0.0525
0.0082	-0.03
0.0022	-0.0323
0.003	-0.0758
0.003	-0.075
0.003	-0.0405
0.003	-0.0263
0.0052	-0.012
0.0082	0.0015
0.0067	-0.0083
0.0082	0.0105
0.0082	0.0442
0.0067	0.0315
0.0037	0.0127
0.0015	0.0345
0.003	0.0457
0.0037	0.0495
0.0052	0.045
0.003	0.0525
-0.0015	0.0562
-0.0015	-0.0008
-0.0015	-0.027
-0.0023	-0.0368
0.0007	-0.0428
0.0015	-0.0181
0.0022	-0.0053
0.0007	-0.063
0.003	-0.0915
0.0052	-0.0863
0.0015	-0.0218
0.0015	0.0825
0.006	0.1027
0.0045	0.117
0.003	0.1372
0.0037	0.1995
0.006	0.1905
0.0052	0.0045
0.0045	-0.1095
0.0052	-0.105
0.0007	-0.0975
0	-0.1193
0.0015	-0.1988
0.003	-0.15
0.0022	-0.048
0.0045	-0.0413
0.0052	-0.0046
0.0082	0.0997
0.0097	0.2497
0.0037	0.2632
0.0052	0.2182
0.0052	0.0802
0.0067	-0.09
0.009	-0.0638
0.009	-0.0915
0.009	-0.0975
0.0052	-0.06
0.006	0.018
0.0082	0.1237
0.0067	0.0525
0.0067	0.0555
0.0105	0.1087
0.009	0.1117
0.006	0.0607
0.0067	-0.012
0.0045	-0.0195
0.0082	-0.0465
0.0097	-0.0533
0.0052	-0.0878
0.0045	-0.1028
0.0075	-0.0938
0.0082	-0.1013
0.0052	-0.063
0.0022	-0.0563
0.0067	-0.0548
0.009	-0.0548
0.0037	-0.078
0.0037	-0.09
-0.0008	-0.0383
-0.003	-0.0338
-0.0015	-0.0473
-0.003	-0.0188
0	-0.0248
0	-0.0083
0.0015	-0.0256
0.0015	-0.03
0.003	-0.0068
0.0045	-0.0195
0.0052	-0.0075
0.0067	-0.012
0.009	0.0052
0.0082	0.024
0.0067	0.0172
0.012	0.012
0.0127	-0.0338
0.0142	-0.0548
0.0135	-0.0488
0.0127	-0.0233
0.015	0.0045
0.0105	0.0165
0.0127	0.0172
0.0105	0.0352
0.009	0.072
0.0112	0.0952
0.009	0.0817
0.0097	0.1102
0.0067	0.144
0.0015	0.0997
0.0022	0.1125
0.003	0.135
0.0037	0.1642
0.0052	0.1897
0.0067	0.1327
0.0052	0.0855
0.0067	0.057
0.0052	0.009
0.0007	-0.0338
0.0022	-0.1088
0.0045	-0.1613
0.003	-0.12
0.0045	-0.1245
0.0037	-0.1283
0.0007	-0.1058
0.0015	-0.0871
0	-0.0323
0.0015	-0.0263
0.0045	0.003
0.0045	0.069
0.0052	0.0375
-0.003	-0.084
-0.006	-0.1223
0.0007	-0.0863
-0.0015	-0.0608
-0.0008	0.0045
0.0007	0.0562
-0.0015	0.1357
-0.0008	0.2025
-0.0015	0.207
-0.0046	0.1605
-0.003	0.1417
-0.0015	0.09
-0.0008	0.0292
-0.0023	0.051
-0.0015	-0.0375
0.0015	-0.0533
0.003	-0.0285
0.0007	-0.0878
0.003	-0.1163
0.0075	-0.129
0.0052	-0.0863
0.0045	-0.1103
0.0112	-0.1006
0.0127	-0.0721
0.0105	-0.0713
0.0105	-0.0548
0.0052	-0.0675
0.006	-0.0511
0.0067	-0.0128
0.006	-0.0053
0.0075	-0.0158
0.0067	0.0262
0.0067	0.045
0.0052	0.0945
0.0127	0.132
0.009	0.0352
0.0045	-0.0375
0.009	-0.0608
0.0082	-0.0323
0.009	0.0352
0.0097	0.015
0.0127	-0.0263
0.012	-0.0203
0.0082	-0.0165
0.012	-0.0015
0.0082	0.0202
0.0067	0.027
0.0082	0.0165
0.0075	0.0202
0.0067	0.0217
0.0045	0.0247
0.0045	0.042
0.003	0.0345
0.0052	0.0382
0.0052	0.0352
0.0037	0.0165
0.0022	0.0045
0.003	-0.0233
0.006	-0.0735
0.0067	-0.1613
0.006	-0.1538
0.0045	-0.1313
0.0082	-0.1628
0.009	-0.0691
0.009	0.0757
0.0067	0.2182
0.0052	0.3487
0.0067	0.4155
0.0015	0.2632
0	0.009
0.003	-0.048
0.003	-0.0473
0.0015	0.0052
0.0015	-0.015
0.0045	-0.0825
0.0052	-0.033
0.009	-0.003
0.0082	0.018
0.0045	-0.0098
0.0022	-0.027
0.003	-0.0368
0.0045	-0.0338
0.0007	-0.0323
0.0022	-0.0525
0.0037	-0.0353
0.0045	-0.0525
0.009	-0.0428
0.0082	-0.0623
0.0067	-0.0608
0.003	-0.0285
0.0015	-0.024
0	-0.039
0.0037	-0.0383
0.003	-0.0158
0.0007	0.0022
0.003	0.0315
0.0007	0.0292
-0.0015	0.0352
-0.0008	0.0262
0.0007	0.0067
0.0015	-0.0263
0.0052	-0.1441
0.0022	-0.1365
-0.0015	-0.0585
0.003	-0.0181
0.003	0.0532
0.0052	0.1305
0.0105	0.1875
0.0105	0.2055
0.0082	0.2527
0.0052	0.1875
0.0082	0.027
0.0045	-0.0135
0.0022	-0.0668
0.0052	-0.0968
0.0067	-0.0765
0.0067	-0.0983
0.006	-0.0885
0.0045	-0.0443
0.0015	0.0105
0.0015	0.1065
0.0045	0.2062
0.003	0.1605
0.003	-0.0075
0.0037	-0.111
0.0007	-0.126
0.0045	-0.1125
0.0082	-0.114
0.009	-0.1298
0.0082	-0.1343
0.0082	-0.0728
0.0135	0.0495
0.0045	0.0825
0.0022	-0.0038
0.0052	-0.0315
0.0022	-0.0383
0.0052	-0.0473
-0.0008	0.0007
-0.0008	0.0585
-0.003	0.1057
-0.003	0.0225
0.0007	-0.003
0.0007	0.0622
0.0037	0.1057
0.006	0.159
0.0045	0.0675
0.003	0.0105
0.0067	0.0232
0.0045	0.0015
0.0067	-0.0053
0.0105	-0.03
0.0097	-0.033
0.0142	-0.0518
0.0105	-0.0308
0.009	-0.0046
0.009	-0.0173
0.0052	-0.0143
0.0067	-0.0248
0.0097	-0.0128
0.0097	-0.0375
0.0097	-0.045
0.0105	0.003
0.0097	0.0067
0.009	0.0322
0.006	0.0795
0.003	0.0855
0.003	0.0682
0.006	0.057
0.003	0.0412
0	0.0097
0.0015	-0.0256
0.0045	-0.0938
0.0097	-0.1283
0.009	-0.1125
0.0052	-0.0871
0.0097	-0.0383
0.0105	0.0457
0.0045	0.0765
0.0067	0.0037
0.0045	-0.0008
0.0052	0.0135
0.0045	0.0165
0.0015	0.0382
0.0045	-0.0091
0.0067	0.0082
0.0052	0.0517
0.0037	0.063
0.0067	0.0727
0.0045	0.0352
0.003	0.0247
0.0037	0.0187
0.003	-0.0263
0.003	-0.057
0.0022	-0.0615
0.0022	-0.045
0.003	-0.0413
0.0045	-0.063
0.0015	-0.0593
0.0037	-0.0398
0.0045	-0.0915
0.0015	-0.1598
0.0022	-0.1493
0.0052	-0.0765
0.0067	-0.0225
0.0067	0.0412
0.0067	0.0832
0.0015	0.084
0.0052	0.126
0.0037	0.1972
-0.0023	0.1567
0.0015	0.0067
0.0045	-0.0361
0.0067	0.0187
0.0075	0.1072
0.0067	0.1185
0.0045	0.0172
0.0007	0.0337
0.0045	0.0495
0.0045	0.0352
0.0037	0.0607
0.0045	0.0442
0.0045	-0.0068
0.0045	-0.0593
0.0075	-0.048
0.009	0.003
0.0097	0.0832
0.0105	0.1477
0.006	0.1717
0.003	0.0472
0	-0.132
0.0015	-0.0683
0.0015	-0.0488
0.0015	-0.0788
0.0075	-0.0706
0.0067	-0.1028
0.0022	-0.0436
0.0015	0.027
0.0067	0.0757
0.006	-0.033
0.003	-0.0968
0.003	-0.0728
0.0045	-0.0953
0.0067	-0.0735
0.0067	-0.0743
0.0037	-0.048
0.0015	-0.0353
0.003	-0.006
0.0052	0.0247
0.0052	0.0397
0.0067	0.0315
0.003	-0.0046
0.0045	-0.0225
0.0037	-0.0871
0.0037	-0.1125
0.0082	-0.075
0.003	-0.0353
0.0022	-0.0165
0.0045	0.0045
0.0037	0.042
0.003	0.0607
0.0022	0.1072
0.0037	0.0982
0.003	-0.0053
0.0037	-0.0323
0.0037	-0.0165
0.0052	0.012
0.0022	0.0165
0.0045	-0.0398
0.0067	-0.0046
0.006	0.0682
0.012	0.0982
0.0127	0.0757
0.0105	0.027
0.009	0.027
0.0052	0.0082
0.003	-0.0413
0.0052	-0.0548
0.012	-0.0458
0.0135	-0.0218
0.0112	-0.0091
0.009	-0.0008
0.0075	0.0067
0.0052	0.0157
0.006	0.0757
0.006	0.123
0.006	0.096
0.0052	0.021
0.0022	0.0277
0.0052	0.0052
0.0082	-0.0256
0.003	-0.0458
0.0045	-0.093
0.0045	-0.0788
0.0052	-0.1493
0.0052	-0.2026
0.0007	-0.1396
0.0052	-0.099
0.006	-0.0218
0.0082	0.1455
0.0097	0.2835
0.0037	0.27
0.003	0.1995
0.0045	0.2085
0.0037	0.0975
0.003	0.0067
0.0045	0.0165
0.006	-0.0278
0.0007	0.003
-0.0046	-0.0128
-0.003	-0.0398
-0.0008	-0.0278
0.0015	-0.0285
-0.0008	0.0135
-0.0023	0.003
0.0007	-0.0038
0.0007	0.0052
0.003	0.0045
0.0045	-0.0068
0	-0.03
0.0037	-0.0383
0.0045	-0.0495
0.003	-0.0368
0.0067	-0.0436
0.0082	-0.0638
0.0082	-0.0443
0.009	-0.003
0.009	0.0427
0.009	0.0375
0.0067	-0.03
0.0045	-0.078
0.012	-0.0511
0.0112	-0.0128
0.009	-0.039
0.009	-0.0473
0.0052	-0.027
0.0075	-0.0225
0.0082	-0.0023
0.0052	0.0097
0.0037	0.0345
0.006	0.0907
0.009	0.1642
0.0045	0.147
0.0052	0.0412
0.0067	0.0127
0.0067	0.0037
0.0052	0.0037
-0.0008	0.015
0.0015	-0.012
0.003	-0.0098
0.0052	-0.0165
0.0052	-0.0203
0.0045	-0.0353
0.0082	-0.0908
0.009	-0.1185
0.0045	-0.0743
0	-0.0495
-0.0008	-0.0563
-0.0008	-0.0128
0.0015	-0.0338
0.0082	-0.0128
0.0082	0.0285
0.0067	0.0075
0.006	0.018
0.006	0.0165
0.006	0.0097
0.006	0.0052
0.0067	0.003
0.0045	0.0345
0.0067	0.0682
0.0067	0.0847
0.0075	0.084
0.0082	0.0195
0.0045	-0.0308
0.0045	-0.0075
0.003	-0.0075
0.0067	-0.0405
0.006	-0.0488
0.0045	-0.0443
0.0052	0.045
0.0037	0.111
0.0045	0.1335
0.0067	0.2017
0.0075	0.1425
0.0052	-0.003
0.0015	-0.0585
0.003	-0.0825
0.0045	-0.1095
0.0045	-0.1088
0.0015	-0.1628
0.0007	-0.1935
0.003	-0.1073
0.0022	-0.042
0.003	-0.1238
0.003	-0.1898
0.003	-0.0945
0.009	-0.0053
0.0097	0.123
0.0045	0.159
0.0052	0.0787
0.0082	0.0817
0.0052	0.15
0.0075	0.2032
0.0067	0.057
0.0052	-0.0563
0.0067	-0.09
0.0007	-0.1478
-0.0008	-0.1118
-0.0038	-0.1118
-0.0046	-0.0405
-0.003	0.0247
0.0007	0.0907
0.0015	0.1935
0.0015	0.243
0.0045	0.276
-0.0008	0.2077
-0.0046	0.1372
0.0015	-0.0008
0.0037	-0.045
0.003	-0.0091
0.0082	-0.0563
0.0082	-0.0188
0.003	-0.048
0.0022	-0.0623
0.003	-0.057
0.0052	-0.0503
0.0075	-0.03
0.0082	-0.0413
0.0067	0.024
0.0015	0.0375
0.0015	-0.003
0.0052	-0.0308
0.0045	-0.033
0.0045	-0.0323
0.0045	-0.054
0.0075	-0.0405
0.0082	-0.0195
0.003	-0.0188
0.003	-0.006
0.0045	0.0007
0.0067	0.0045
0.0082	0.0015
0.0045	0.0105
0.003	0.0285
0.0007	0.012
0.0022	-0.0015
0.0037	-0.0038
0.0052	-0.0098
0.0067	-0.027
0.0082	-0.021
0.0067	-0.012
0.0037	0.0157
0.006	0.0225
0.0045	-0.0053
0.0052	0.015
0.009	0.0255
0.0067	0.0322
0.0052	0.0292
0.0052	0.012
0.0082	0.0045
0.0075	-0.0046
0.0015	0.0015
0.0067	-0.012
0.0082	-0.0473
0.0052	-0.084
0.0052	-0.114
0.0052	-0.1268
0.0067	-0.0953
0.0052	-0.0533
0.0052	-0.0188
0.0052	0.0127
0.0052	0.0037
0.0045	0.072
0.0082	0.192
0.009	0.2122
0.006	0.1102
0.003	-0.006
0.0052	-0.0008
0.0082	0.0825
0.0007	0.111
0.0022	0.0045
0.0037	-0.0315
-0.0015	-0.0105
-0.003	0
0.0015	0.0322
0.0037	0.0022
0.0015	-0.0458
0.0007	-0.1545
-0.0008	-0.1928
0.0007	-0.1335
0.0015	-0.078
0.003	0.0045
0.0052	0.1147
0.0112	0.228
0.0127	0.294
0.0052	0.1957
0.0067	-0.0563
0.0082	-0.1741
0.0052	-0.12
0.0067	-0.1125
0.0045	-0.1148
0.003	-0.0735
0.0045	-0.0233
0.0022	0.108
0.0015	0.2302
0.0052	0.1837
0.0052	0.0187
0.0015	-0.0203
0.003	0.0802
0.003	0.1237
0.0015	0.0967
0.0052	-0.0203
0.0052	-0.0203
0.0015	0.015
0.0045	-0.039
0.0045	-0.0233
0.0105	-0.0346
0.0082	-0.057
0.003	-0.0563
0.006	-0.0645
0.0052	-0.0525
0.0075	-0.0315
0.0052	-0.0525
0.0007	-0.0713
0.0022	-0.06
0.0007	-0.0465
0.0037	-0.0698
0.0015	-0.0983
0.0045	-0.0953
0.0045	-0.1305
0.003	-0.1275
0.009	-0.0878
0.0067	-0.0735
0.0105	-0.0083
0.0075	0.0862
0.0082	0.0817
0.0097	0.0442
0.0067	0.0412
0.0082	0.0262
0.0052	0.0247
0.006	0.0165
0.009	0.018
0.009	0.0337
0.0082	0.0442
0.0052	0.0562
0.0045	0.0532
0.0052	0.0682
0.0075	0.0592
0.0097	0.0457
0.009	0.0405
0.0097	0.0517
0.0082	0.063
0.0052	0.0352
0.0097	0.0225
0.009	0.0382
0.009	0.0412
0.012	0.036
0.0082	0.0262
0.0105	-0.0038
0.0112	-0.0165
0.0082	-0.027
0.0075	-0.0293
0.003	-0.0285
0.0022	-0.0143
0.0007	-0.0015
0.0007	-0.0638
0.0045	-0.0698
0.0015	-0.0338
0.0022	0.003
-0.0008	0.0292
-0.0023	-0.0383
0.0022	-0.0428
0.0015	-0.012
0.003	-0.0278
0.0037	-0.0263
0.0067	-0.0645
0.009	-0.0795
0.003	-0.012
0.0022	0.0885
0.0022	0.0975
0.0052	0.1087
0.0015	0.1515
0.0015	0.132
0.0075	0.186
0.0045	0.195
0.0045	0.0495
0.0067	-0.024
0.0052	-0.0173
0.0045	-0.0188
0.003	-0.0008
0.0052	0.0007
0.0045	0.003
0.0052	-0.0256
0.0067	-0.027
0.0067	-0.0263
0.006	-0.039
0.0067	-0.09
0.0067	-0.2011
0.0075	-0.234
0.006	-0.2408
0.003	-0.243
0.0067	-0.2026
0.0045	-0.1455
0.0015	-0.1148
0.0082	-0.0398
0.0097	0.1447
0.0067	0.231
0.006	0.162
0.0067	0.1342
0.0045	0.1642
0.003	0.1477
0.0022	0.156
0.0015	0.0817
0.003	-0.0165
0.0007	0.0067
0.0015	0.0135
0.0052	0.0202
0.0067	0.0885
0.0015	0.081
0.0022	-0.0091
0.003	0.0022
0.0015	-0.015
0.0037	-0.0998
0.0037	-0.1433
0.0067	-0.1208
0.0067	-0.0443
0.0052	-0.0495
0.0067	-0.0525
0.006	-0.0083
0.0022	-0.0068
0.0022	-0.0315
0.0037	-0.015
0.0022	0.0082
0.003	0.0187
0.0037	0.0367
0.003	0.0427
0.0075	0.063
0.0075	0.0622
0.003	0.0322
0.0052	0.0075
0.0052	0.0322
0.0052	0.036
0.0067	-0.0436
0.0037	-0.06
0.0007	0
0.0022	-0.0158
0.0015	-0.0218
-0.0008	0.0067
0.0015	0.0097
0.0015	0.024
0.0007	0.0165
0.0007	0.015
0.0015	0.0052
0.0067	-0.0143
0.0052	-0.03
0.0067	-0.0375
0.0052	-0.0361
0.0045	-0.0436
0.0082	-0.0511
0.0075	-0.0795
0.006	-0.1073
0.0082	-0.1185
0.012	-0.1185
0.0135	-0.0706
0.0127	0.0022
0.009	0.051
0.0045	0.0607
0.0082	0.0742
0.015	0.0795
0.0082	0.0202
0.0045	-0.108
0.0075	-0.2011
0.0052	-0.1448
0.0037	-0.0188
0.0022	0.063
-0.0075	0.0915
-0.003	0.117
0.003	0.1815
-0.003	0.2272
0.0045	0.2572
0.0045	0.2077
0.0037	0.0412
0.0067	-0.0413
0.0052	-0.1305
0.0022	-0.2041
0.0007	-0.1711
-0.0008	-0.1433
0.0022	-0.063
0.0082	0.0067
0.0105	0.2265
0.0082	0.4267
0.003	0.393
0.003	0.2257
0.0045	0.033
0.0045	0.0532
0.0007	0.006
0.0007	-0.0398
0	0.0097
0.0045	0.0397
0.009	0.0337
0.0052	-0.1238
0.0052	-0.135
0.0045	-0.09
0.0045	-0.078
0.003	-0.0548
0.006	-0.0765
0.0052	-0.057
0.003	-0.0525
0.0067	-0.06
0.0052	-0.0645
0.0037	-0.039
0.0045	-0.0225
0.0067	0.009
0.0067	0.024
0.003	0.0067
0.006	0.0142
0.0082	-0.012
0.0097	-0.0098
0.0082	0.009
0.0045	-0.006
0.0067	-0.0181
0.0075	-0.0263
0.0075	-0.039
0.0015	-0.0203
0.0007	0.0045
0.0022	0.0045
0.0015	0.0067
0.003	-0.0015
-0.0015	0.024
-0.0083	0.0277
-0.0023	-0.0023
0.003	-0.0015
0.0007	-0.0053
0.0015	-0.033
-0.0008	-0.0165
0.0052	0.0487
0.006	0.0502
0.0067	0.0322
0.0105	0.036
0.0097	0.0697
0.0127	0.0607
0.0105	0.0007
0.0097	-0.0083
0.009	-0.0285
0.0045	-0.039
0.0082	-0.045
0.0067	-0.0225
0.0045	-0.012
0.0067	-0.0698
0.0105	-0.0721
0.0127	-0.0158
0.0075	0.0015
0.0067	-0.03
0.0067	-0.0128
0.0022	-0.0068
0.003	-0.0225
0.0052	-0.012
0.003	-0.0128
0.0022	0.036
0.003	0.06
0.0037	0.0607
0.0052	0.0817
0.0052	0.0817
0.0022	0.0375
0.003	-0.0338
0.0052	-0.084
0.0015	-0.1568
0.0007	-0.1575
-0.0008	-0.1493
0.0007	-0.2093
0.0045	-0.1741
0.0067	-0.0315
0.006	0.093
0.0045	0.1515
0.006	0.2857
0.0015	0.3247
0.0007	0.243
0.0075	0.3667
0.0052	0.3525
0.0037	0.057
0.006	-0.096
0.0075	-0.0788
0.0007	-0.0346
0.0007	-0.0068
0.0015	-0.0256
-0.0023	-0.057
0	-0.0495
0	-0.0511
0.0015	-0.0338
0.0007	0.0187
-0.0023	0.003
0.0045	-0.132
0.0045	-0.1741
0.0067	-0.1568
0.012	-0.186
0.0105	-0.117
0.0105	-0.09
0.0135	-0.0683
0.0105	-0.033
0.0105	-0.0743
0.012	-0.0968
0.0067	-0.1006
0.0045	-0.0548
0.0075	-0.0023
0.0075	0.0637
0.0052	0.09
0.0052	0.132
0.003	0.2542
0.006	0.327
0.009	0.2985
0.0015	0.138
0.0015	0.051
0.0045	0.0015
0.0052	-0.0623
0.0067	-0.0495
0.006	-0.057
0.0052	-0.0361
0.003	-0.0361
0.0022	-0.0495
0.003	-0.057
0.0052	-0.0765
0.009	-0.084
0.0052	-0.0706
0.0015	-0.0413
0	-0.039
0.0015	-0.012
0.0052	-0.0278
0.006	-0.027
0.0052	0.006
0.0045	-0.006
0.0052	0.009
0.0067	0.0022
0.0045	0.0172
0.006	0.0285
0.0067	0.0225
0.006	0.0157
0.006	0.0127
0.0015	0.0382
0.003	0.0202
0.003	-0.0091
0.0015	-0.0375
0.0007	-0.0578
0.003	-0.039
0.0075	-0.0315
0.006	-0.0181
0.0075	0.0157
0.0082	0.0442
0.0045	0.078
0.0007	0.0825
0.0022	0.0802
0.0052	0.0592
0.0082	0.0315
0.012	0.0652
0.006	0.0285
0.0015	0.0015
0.003	0.0697
0.003	0.0495
0.0045	-0.0308
0.0075	-0.063
0.006	-0.0623
0.0052	-0.0436
0.0045	-0.0436
0.0052	0.0067
0.0045	-0.0091
0.0045	-0.0653
0.0082	-0.0608
0.009	-0.0758
0.0082	-0.075
0.0105	-0.0833
0.012	-0.1283
0.0067	-0.1808
0.0045	-0.1493
0.0067	-0.066
0.0067	0.0045
0.0067	0.0697
0.0045	0.1342
0.0037	0.222
0.0052	0.3375
-0.0008	0.363
-0.0053	0.18
0.0015	0.0322
0.0045	0.0697
0.0052	0.1185
0.0097	0.1897
0.0045	0.1567
-0.0008	0.0285
0.0015	-0.0278
0.0015	-0.0413
-0.003	-0.0338
0.0007	-0.1155
0.003	-0.1748
-0.0015	-0.1215
0.0007	-0.0795
0.0052	-0.0878
0.009	-0.1095
0.0052	-0.0795
0.0045	-0.0743
0.009	-0.0773
0.009	-0.0871
0.0105	-0.0915
0.009	-0.0645
0.0067	-0.0495
0.003	-0.0135
0.0052	0.009
0.009	-0.0015
0.0082	-0.0091
0.0105	-0.0105
0.009	0.0052
0.0075	0.0495
0.0052	0.081
0.0052	0.0937
0.0052	0.0855
0.0105	0.051
0.0082	0.021
0.0067	0.0187
0.0045	0.0255
0.0052	0.015
0.0105	-0.015
0.0067	-0.0856
0.0105	-0.1103
0.0082	-0.0915
0.0007	-0.1043
0.0022	-0.0945
0.003	-0.0563
0.0045	-0.0638
0.0075	-0.0615
0.0097	0.0562
0.0075	0.1417
0.0067	0.0517
0.0015	-0.0165
0.0022	0.0045
0.0067	0.087
0.0022	0.1912
0.0045	0.2805
0.0015	0.2272
-0.0015	0.057
0.003	0.0067
0.0067	-0.0188
0.0067	-0.0353
0.003	0.0105
-0.0015	-0.0368
-0.0015	-0.0518
0.0037	0.0142
0.0052	0.099
0.0067	0.0877
0.0022	-0.0443
0.0022	-0.1365
0.006	-0.219
0.0037	-0.2513
0.006	-0.1943
0.0022	-0.0915
-0.0008	-0.0091
0.003	-0.0105
0	0.0397
-0.0008	0.111
0.0015	0.162
0.003	0.1477
0.0045	0.048
0.0075	0.066
0.0067	0.0577
0.0045	0.0532
0.003	0.0825
0.0022	-0.0008
0.0045	-0.0555
0.0015	-0.0585
0.003	-0.0563
0.009	-0.0803
0.0112	-0.0465
0.0082	0.045
0.0067	0.0397
0.009	0.0015
0.0075	-0.0015
0.0082	-0.0188
0.006	-0.0105
0.0082	0.0007
0.009	-0.0278
0.0045	-0.0278
0.006	-0.0181
0.0052	-0.0165
0.003	-0.0195
0.0045	-0.0203
0.0067	-0.0091
0.0067	0.0067
0.0052	0.0285
0.0075	0.066
0.0045	0.0532
0.0007	0.0465
0	0.051
0.0015	0.0082
0.0007	0.0127
0.003	0.0307
0.0022	0.015
0.003	-0.0218
0.0052	-0.0203
0.003	-0.015
0.0045	-0.0285
0.0045	-0.0315
0.006	-0.0578
0.0052	-0.066
0.0037	-0.0443
0.0037	0.0105
0.0037	0.0007
0.0045	-0.0225
0.0022	-0.0015
0.0045	-0.0008
0.006	0.0082
0.0075	-0.0233
0.0067	-0.0436
0.0045	-0.015
0.0052	0.0105
0.0067	0.009
0.009	-0.0015
0.009	-0.0053
0.0045	-0.03
0.0015	-0.024
0.0022	0.0292
0.0007	0.0532
0.003	0.063
0.0007	0.1147
0.0052	0.1717
0.009	0.1695
0.0052	0.1102
0.0045	0.0495
0.0015	-0.0046
0.0052	-0.0053
0.0127	-0.0256
0.0105	-0.066
0.003	-0.0856
0.0037	-0.0488
0.003	-0.012
0.0007	-0.0743
0.0052	-0.1298
0.0067	-0.0915
0.0037	-0.0428
0.0022	-0.0428
0.006	0.0397
0.0015	0.0697
0.0007	-0.0533
0.0045	-0.1006
0.0015	-0.1433
0.009	-0.1515
0.0112	-0.0488
0.0067	0.0435
0.0052	0.0487
0.0045	0.1065
0.0082	0.2497
0.003	0.264
0.0037	0.2452
0.006	0.1042
0.0052	-0.1035
0.0082	-0.0915
0.0067	-0.0758
0.0075	-0.0256
0.0127	-0.0053
0.012	-0.024
0.0075	-0.0068
0.0097	-0.027
0.0097	-0.0338
0.009	-0.0511
0.009	-0.0323
0.0067	-0.0165
0.0075	-0.0068
0.0067	0.0075
0.0082	0.0112
0.0082	0.0375
0.0067	0.0517
0.0075	0.0667
0.0037	0.0547
0.0045	0.0015
0.0067	-0.0473
0.0075	-0.0488
0.0105	0.0247
0.0075	0.0547
0.0045	0.018
0.003	0.0525
0.003	0.051
0.0052	-0.015
0.0075	-0.06
0.009	-0.0458
0.003	-0.0113
0.0007	-0.0346
0.0007	-0.0398
0.0015	-0.0338
0.0045	-0.039
0.0007	-0.0428
0.0037	-0.0398
0	-0.015
-0.0008	-0.0495
0.0007	-0.0495
-0.0023	-0.0256
0.0007	-0.0495
-0.0008	-0.045
-0.003	-0.027
-0.0015	-0.015
0.0015	-0.0053
0.0015	-0.0218
0.003	-0.0046
0.0067	0.0135
0.0052	0.0135
0.0015	0.0187
0.0067	0.0352
0.006	0.0547
0.0007	0.051
0.0007	0.0412
0.003	0.0142
0.0082	0.0142
0.0067	0.0322
0.0037	0.0712
0.003	0.117
0.0037	0.0997
0.006	0.0757
0.0015	0.048
0.003	0.0525
0.0045	0.0712
0.0015	0.033
0.0052	-0.0405
0.0045	-0.0323
0.0037	0.0322
0.0067	0.0007
0.009	0.0232
0.0082	0.0675
0.0067	0.0277
0.006	-0.0225
0.0007	-0.0615
0.0022	-0.0623
0.0022	-0.1163
0.0007	-0.192
0.0015	-0.207
0.0045	-0.1223
0.0082	0.003
0.009	0.012
0.0112	-0.078
0.0127	-0.0436
0.0105	0.1342
0.0045	0.2805
0.0097	0.1777
0.0067	-0.0248
-0.0046	-0.0263
0.003	0.078
0.003	0.2167
0.006	0.165
0.009	0.0585
0.003	0.0802
0.003	0.0765
0.003	0.0292
0.0015	-0.024
-0.0015	-0.039
0.0015	-0.0713
0.003	-0.0803
0.003	-0.099
0.006	-0.0863
0.0045	-0.0721
0.0067	-0.0668
0.0045	-0.0413
-0.0008	-0.0525
0.003	-0.0338
0.0037	-0.057
0.0052	-0.0638
0.009	-0.0443
0.009	-0.0173
0.009	0.0007
0.009	-0.0278
0.0082	-0.012
0.0112	0.0067
0.0097	-0.0075
0.0067	-0.0105
0.0052	-0.0105
0.0067	-0.0105
0.009	0.0022
0.0112	-0.0083
0.0067	-0.0188
0.003	-0.0046
0.003	-0.0046
-0.0015	0
-0.0015	0.0172
0.0007	0.0075
0.0007	-0.0181
0.0015	-0.0225
0.003	0.0075
0.0045	0.0015
0.009	-0.0871
0.0097	-0.0953
0.0067	-0.117
0.0082	-0.1935
0.0052	-0.1396
0.0067	-0.0953
0.0082	-0.027
0.0075	0.1012
0.0067	0.2032
0.0067	0.291
0.0045	0.3705
0.003	0.3937
0.0045	0.2137
0.0015	0.0825
0.0022	0.0435
0.003	-0.015
0.0037	-0.0181
0.0037	-0.0263
0.0045	-0.0225
0.006	-0.0338
0.0015	-0.0285
0.0045	-0.0323
0.0045	-0.0773
0.006	-0.1088
0.009	-0.132
0.0037	-0.093
0.003	-0.0795
0.0045	-0.0473
0.0045	0.0015
0	0.015
0	0.0255
0.0015	0.0112
0.0007	-0.0128
0.003	-0.045
0.003	-0.042
0.0052	-0.0353
0.0105	0.0082
0.0105	-0.0053
0.0097	-0.2026
0.009	-0.24
0.006	-0.1515
0.0045	-0.0833
0.0015	0.0195
-0.0008	0.072
0.003	0.18
0.0082	0.3825
0.0127	0.5925
0.0052	0.552
-0.0008	0.2115
0.003	-0.0038
0.0052	-0.0893
0.0052	-0.1508
0.0022	-0.1838
0.0022	-0.2153
0.0052	-0.153
0.009	-0.117
0.0075	-0.111
0.0045	-0.0923
0.006	-0.1238
0.0045	-0.084
0.0067	-0.0353
0.009	-0.0285
0.0112	-0.0256
0.009	-0.042
0.0075	-0.0105
0.0112	0.0442
0.009	0.075
0.0075	0.0562
0.0067	0.063
0.0082	0.0682
0.0052	0.0367
0.0045	0.0255
0.0037	0.009
0.003	-0.003
0.0045	-0.039
0.003	-0.039
0.0045	-0.0083
0.0075	-0.0098
0.0067	-0.0181
0.003	-0.0436
0.0052	-0.0555
0.0045	-0.0278
0.0015	-0.0075
0.0015	0.0015
0.003	0.0165
0.003	0.0472
0.003	0.093
0.0037	0.0907
0.0045	0.0862
-0.0008	0.0645
-0.0008	0.0232
0.0045	-0.0375
0.003	-0.1643
0.0037	-0.255
0.0045	-0.1418
-0.0008	-0.0323
-0.003	-0.0623
0.0007	0.0195
0.003	0.0352
0.0067	0.1042
0.0075	0.2317
0.0082	0.2317
0.0105	0.1215
0.0052	0.0127
0.0082	0.0622
0.0015	0.0315
0.0015	0.0262
0.0067	0.036
-0.0008	0.0007
0.0022	-0.006
0.0015	-0.0495
0.0045	-0.0495
0.003	-0.0645
-0.0008	-0.0698
0.0045	-0.0818
0.0022	-0.0683
0.003	-0.0383
0.0045	-0.0278
0.0045	0.0007
0.0067	0.0187
0.0067	0.0277
0.0045	0.0405
0.0037	0.0555
0.0015	0.048
0.0067	0.03
0.0067	0.0277
0.0022	-0.006
0.0022	-0.0548
0.0052	-0.0818
0.0067	-0.081
0.0037	-0.1095
0.012	-0.111
0.0157	-0.0713
0.0127	-0.0488
0.0142	-0.012
0.0105	0.0142
0.009	0.024
0.006	0.033
0.0015	0.0412
0.003	0.0277
0.006	0.0285
0.0097	0.0165
0.0052	-0.0113
0.0037	-0.0195
0.006	-0.0436
0.0052	-0.0436
0.0037	-0.0293
0.0045	-0.0015
0.0052	0.0322
0.0045	0.0412
0.003	0.0997
0.0067	0.1365
0.0082	0.1942
0.0075	0.2452
0.0022	0.0997
-0.0015	-0.0795
-0.0008	-0.1785
0.0007	-0.1875
0.0052	-0.1328
0.0075	-0.0675
0.0052	0.0142
0.0067	0.0892
0.0052	0.1455
0.006	0.18
0.0052	0.1822
0.0037	0.0562
0.0045	-0.0038
0.0082	0.045
0.009	0.0292
0.0052	-0.045
0.0052	-0.0968
0.0052	-0.0593
0.0082	-0.0735
0.0067	-0.0608
0.006	-0.0173
0.012	0.0195
0.0082	0.1552
0.0067	0.1582
0.0067	0.021
0.0052	-0.0143
0.0052	-0.0233
0.0045	-0.0691
0.006	-0.063
0.0037	-0.0436
0.003	-0.0525
0.009	-0.0585
0.0082	-0.063
0.0045	-0.0361
0.0015	-0.0165
0.0015	-0.0046
0.003	0.0135
0.003	-0.0068
0.006	-0.0105
0.0052	-0.0053
0.0007	-0.0053
0.0007	-0.0143
0.0015	-0.0503
0.0015	-0.0608
0.0007	-0.0585
0.0015	-0.0691
0.003	-0.03
0.0045	0.0285
0.0022	0.0585
0.003	0.0885
0.0052	0.0645
0.0052	0.0315
0.0052	-0.0053
0.003	-0.0053
0.003	0.021
0.003	0.018
0.0037	0.0345
0.0045	0.018
0.0052	0.0045
0.0052	-0.0015
0.0045	0.0435
0.006	0.105
0.0007	0.0975
0	0.0352
0.0075	-0.0008
0.003	-0.012
0.0015	-0.0353
0.0045	-0.021
0.003	-0.0278
0.0022	-0.0405
0.0052	-0.0915
0.0082	-0.0856
0.009	-0.0735
0.009	-0.09
0.0097	-0.039
0.0052	-0.0105
0.0045	0.0165
0.0067	0.0337
0.0075	0.0202
0.0075	0.0307
0.003	0.0352
0.0015	0.0262
0.0022	0.0285
0.003	0.0472
0.0045	0.0607
0.0045	0.0285
0.0075	-0.0053
0.0052	-0.0083
0.0022	-0.0038
0.0045	-0.0323
0.006	-0.0645
0.0067	-0.0893
0.0045	-0.1313
0.0082	-0.0548
0.009	0.0382
0.0037	-0.0548
0.0067	-0.12
0.0052	-0.1733
0.0037	-0.1793
0.0082	0.0067
0.0075	0.0682
0.0052	0.057
0.0037	0.0795
0.003	0.1822
0.003	0.3165
0.0067	0.336
0.0067	0.2632
0.003	0.1537
0.0045	0.1785
-0.0015	0.111
0.0022	-0.0361
0.0052	-0.0458
0.0037	-0.075
0.0097	-0.0706
0.0067	-0.0713
0.0045	-0.0585
0.0052	-0.0293
0.0037	-0.0683
0.0045	-0.084
0.0052	-0.099
0.0052	-0.1313
0.0067	-0.2175
0.0067	-0.1935
0.0052	-0.1103
0.0015	-0.0735
0.0052	-0.0091
0.0075	0.0472
0.0045	0.1642
0.0052	0.267
0.0052	0.3322
0.0075	0.2167
0.0067	-0.066
0.006	-0.0645
0.0052	-0.0203
0.006	-0.045
0.0082	0.0022
0.006	-0.0383
0.0067	-0.0195
0.006	0.0142
0.0022	0.024
0.0045	0.003
0.0052	-0.0436
0.0037	-0.0383
0.0067	-0.0195
0.0075	-0.0375
0.0037	-0.114
0.0037	-0.135
0.006	-0.057
0.0052	0.0232
0.003	-0.0008
0.0052	-0.0165
0.003	-0.0015
-0.0015	-0.0128
-0.0008	-0.0278
0.0037	-0.0398
0.003	-0.0488
0.0007	-0.0698
0.0037	-0.0346
0.0037	-0.012
0.003	-0.0263
0.003	0.0082
0.003	0.0435
0.003	0.0465
0.0052	0.0517
0.0052	0.0667
0.003	0.0877
0.0045	0.0975
0.0082	0.0705
0.0082	0.048
0.0105	0.03
0.0067	0.0127
0.0052	0.0547
0.0052	0.066
0.0045	0.0577
0.0067	0.0562
0.0052	0.057
0.0045	0.063
0.0052	0.0337
0.0037	0.0262
0.0015	0.0315
0.0037	-0.0008
0.0045	-0.0428
0.003	-0.0721
0.006	-0.0893
0.006	-0.0915
0.0052	-0.1103
0.003	-0.0975
0.0007	-0.0383
0.0037	0.024
0.0045	0.0525
0.0007	0.0232
0.0052	0.0142
0.0067	0.0277
0.0067	0.0517
0.009	0.0645
0.0045	0.0577
0.0067	0.0427
0.006	0.0007
0.003	-0.003
0	-0.0023
-0.003	-0.0428
-0.0008	-0.0525
0.003	-0.0578
0.0037	-0.0675
0.0052	-0.0638
0.0082	-0.0645
0.0097	-0.024
0.009	0.0217
0.0015	-0.003
0.0037	-0.0225
0.0045	-0.03
0.003	-0.0856
0.0052	-0.0788
0.0015	-0.0593
0.0052	-0.0721
0.012	-0.0436
0.0067	-0.0315
0.0067	-0.0338
0.009	0.012
0.0082	0.069
0.0067	0.0352
0.006	-0.006
0.0052	0.0247
0.0067	0.066
0.0082	0.174
0.0082	0.2317
0.0075	0.1125
0.0045	0.03
0.0075	0.0532
0.0105	0.0435
0.009	0.0742
0.0045	0.1125
0.0015	0.0165
0.0037	-0.0203
0.0037	-0.0383
0.0037	-0.066
0.0007	-0.0615
0.0007	-0.0833
0.0037	-0.063
0.0045	-0.0758
0.0037	-0.1515
0.0015	-0.1688
0.0045	-0.0856
0.003	-0.0105
0.0015	-0.0046
0.0052	0.0262
0.006	0.057
0.0052	0.0997
0.006	0.1335
0.0067	0.165
0.0082	0.1117
0.0067	-0.0015
0.0052	0.0045
0.0067	-0.0233
0.0067	-0.0473
0.0067	-0.0698
0.0045	-0.09
0.003	-0.0375
0.0052	-0.0428
0.003	-0.0398
0.0007	-0.0398
0.0052	-0.0315
0.0052	0.0322
0.0067	0.1087
0.0082	0.0975
0.0067	0.0472
0.0067	0.105
0.0067	0.1335
0.0082	0.1117
0.0052	0.033
0.0082	-0.081
0.0075	-0.0315
0	0
0.0015	-0.0413
0.0075	-0.0098
0.0052	-0.0091
0.003	-0.0158
0.006	0.0007
0.0052	0.0142
0.003	-0.0008
0.003	-0.003
0.003	-0.0218
0.0052	-0.0346
0.0045	-0.012
0.0015	-0.0563
0	-0.057
0.0007	-0.0203
0.003	-0.0195
0.0045	-0.0083
0.006	-0.0308
0.0052	-0.0563
0.0075	-0.066
0.006	-0.0706
0.0022	-0.0323
0.0052	-0.0263
0.0045	-0.0181
0.003	0.0277
0.009	0.0517
0.009	0.0457
0.0045	0.0135
0.0045	0.009
0.0045	0.0412
0.0045	0.0397
0.0052	0.0217
0.0045	-0.0128
0.0015	-0.0225
0.0037	0.0135
0.003	0.0217
-0.0008	0.0322
0.0007	0.0435
0	0.0352
0.003	0.0255
0.0067	0.0375
0.0007	0.048
-0.003	0.0217
0.0007	0.0262
0.003	0.036
0.0067	-0.0023
0.0067	-0.054
0	-0.0503
0.0015	-0.057
0.0067	-0.0706
0.0045	-0.033
0.0015	-0.0518
0.003	-0.0511
0.0052	-0.024
0.0045	-0.0293
0.0067	-0.0083
0.006	-0.0263
0.0037	-0.042
-0.0008	0.0015
0.0007	0
0.0052	0.018
0.0045	0.129
0.0045	0.207
0.006	0.138
0.0045	0.0195
0.0052	0.0225
0.006	0.015
0.0082	0.0045
0.0045	0.024
0.006	-0.0015
0.0105	0.009
0.0075	-0.0083
0.0045	-0.0308
0.0045	-0.0293
0.0067	-0.0668
0.0105	-0.093
0.0082	-0.0863
0.0097	-0.0728
0.0075	-0.0436
0.0067	-0.0315
0.0105	-0.0128
0.0097	0.0382
0.012	0.0877
0.0157	0.0922
0.0105	0.045
0.0045	-0.0083
0.003	-0.105
0.0052	-0.2003
0.0045	-0.1845
-0.0015	-0.066
0.0045	0.0277
0.0052	0.1102
0.0045	0.1807
0.0052	0.2145
0.0097	0.2842
0.012	0.3337
0.0052	0.2857
0.003	0.0825
0.0045	-0.0765
0.0052	-0.0675
0.0007	-0.1163
0.0045	-0.0743
0.0052	-0.0713
0.0052	-0.1628
0.0105	-0.0825
0.006	-0.0488
0.0037	-0.066
0.0045	-0.0511
0.003	-0.0758
0.0015	-0.063
0.003	-0.0563
0.0067	-0.0728
0.0037	-0.0833
0.0052	-0.105
0.0112	-0.0765
0.006	-0.0405
0.003	-0.03
0.0037	0.0052
0	0.018
0.0045	0.0262
0.0052	0.0165
-0.0008	0.0165
-0.0008	0.045
-0.0023	0.0435
0.0007	0.039
0.0015	0.0187
0.0015	0.024
0.003	0.0232
0.0007	0.045
0.0015	0.084
0.006	0.0712
0.0067	0.0652
0.0082	0.0547
0.0097	0.0525
0.0075	-0.0091
0.0045	-0.078
0.003	-0.0638
0.003	-0.063
0.003	-0.0653
-0.0008	-0.132
0	-0.2153
0.003	-0.1426
0.0067	0.0442
0.0082	0.1755
0.0052	0.123
0.0015	0.0855
0.003	0.189
0.009	0.291
0.006	0.3285
0.0052	0.1732
0.0082	0.015
0.0067	0.0052
0.0082	-0.0398
0.0075	-0.0473
0.009	-0.0428
0.0105	-0.0525
0.0105	-0.0158
0.0082	-0.0091
0.0082	-0.0128
0.0082	-0.0091
0.0067	0.0187
0.0052	0.003
0.0045	-0.0098
0.0052	0.024
0.0052	0.0097
0.0067	-0.0315
0.0082	-0.057
0.0097	-0.0511
0.0052	-0.03
0.003	-0.042
0.0052	-0.066
0.006	-0.0848
0.0037	-0.0908
0.0045	-0.0803
0.006	-0.0728
0.0022	-0.0593
0.0015	-0.0645
0	-0.048
0.0007	-0.0195
0.0052	-0.0278
0.0052	-0.0128
0.0045	-0.0128
0.0045	0.0007
0.0045	0.0262
0.0022	0.0127
0.0037	0.0315
0.0052	0.042
0.003	0.0367
0.0015	0.0435
0	0.0435
0.0037	0.0412
0.0052	0.0322
0.0037	0.0142
0.003	-0.0218
-0.0008	-0.0436
-0.0008	-0.045
0.0015	-0.0593
0.0037	-0.057
0.0037	-0.0233
0.0045	0.0045
0.0052	-0.0083
0.0052	0.0082
0.0082	0.0435
0.0067	-0.0075
0.0037	-0.1485
0.0052	-0.1726
0.006	-0.0563
0.003	-0.006
0.0022	0.036
0.0052	0.0675
0.0082	0.111
0.0075	0.2317
0.0082	0.342
0.006	0.3307
0.0022	0.1192
0.0022	0.0172
0.0022	0.0172
0.0015	0.0015
0.003	-0.0315
0.009	-0.0443
0.006	-0.0218
0.0052	-0.1133
0.006	-0.1088
0.0022	-0.12
0.0015	-0.1853
0.0007	-0.1508
0.0022	-0.1396
0.0045	-0.1088
0.003	-0.0975
0.0067	-0.1006
0.009	-0.057
0.0067	0.0562
0.0082	0.1417
0.0067	0.0967
0.0052	0.0375
0.0052	0.03
0.0067	0.1162
0.0142	0.2452
0.0097	0.225
0.003	0.0495
0.0067	-0.0105
0.0067	0.0082
0.0052	-0.0436
0.0052	-0.0473
0.0082	-0.0361
0.0067	-0.0046
0.0052	-0.0053
0.006	-0.0285
0.0082	-0.024
0.0082	-0.0256
0.0045	-0.0233
0.0037	-0.0495
0.0037	-0.0188
0.0052	0.0007
0.0037	-0.0023
0.0022	0.0472
-0.003	0.0472
-0.0015	0.0277
0.0045	0.0037
0.0015	0.0007
0.0045	-0.003
0.0015	-0.006
0.0007	0.0262
0.0045	0.0577
0.0015	0.0855
0.0015	0.0667
0.003	0.033
0.0015	0.009
0.003	-0.0128
0.0045	-0.0323
0.006	-0.0361
0.0015	-0.0923
0.0045	-0.1155
0.0075	-0.0308
0.0082	-0.033
0.012	-0.0278
0.0067	0.0232
0.0067	0.0195
0.0067	0.0217
0.003	-0.0015
0.003	0.003
0.0067	0.0135
0.0052	0.0075
0.003	-0.0038
0.0037	-0.0623
0.0015	-0.1028
0.0007	-0.0938
0.0015	-0.0706
0.0052	-0.0353
0.0052	-0.0091
0.006	-0.0218
0.0067	0.0195
0.0082	0.0532
0.0052	0.0502
0.0037	0.075
0.0082	0.0682
0.0052	0.0585
0.003	0.0427
-0.0008	0.039
0.0015	0.0315
0.0045	0.0045
0.0045	0.03
0.003	0.012
0.006	0.0015
0.0052	-0.0008
0.003	-0.042
0.0067	-0.0908
0.0052	-0.1605
0.0075	-0.129
0.0075	-0.0803
0.0082	-0.0533
0.0052	0.033
0.003	0.1027
0.0105	0.2175
0.0105	0.3067
0.0082	0.2835
0.0052	0.1102
0.009	-0.0308
0.0067	-0.0346
0.003	-0.0615
0.0082	-0.0683
0.0067	-0.0758
0.009	-0.105
0.006	-0.1193
0.0052	-0.1335
0.009	-0.111
0.0082	-0.108
0.0067	-0.0893
0.0067	-0.0165
0.0037	0.0472
0.0045	0.0607
0.0067	0.0465
0.003	0.093
0.003	0.0465
0.0067	0.0645
0.0045	0.111
0.0007	0.0067
0.0067	0.042
0.0082	0.1507
0.0052	0.2595
0.0052	0.2317
0.0075	0.0382
0.0052	-0.006
0.0037	-0.0375
0.003	-0.1088
0.0015	-0.0653
0.0052	-0.0361
0.003	-0.0398
-0.0008	-0.0315
0	-0.021
0.0015	-0.0285
0.003	-0.054
0.0015	-0.0436
0.0007	-0.0533
0.003	-0.048
0.0045	-0.0398
0.0037	-0.0518
0.0045	-0.0233
0.003	0.0045
0.0045	0.0195
0.0052	0.0285
0.0052	0.0285
0.003	0.0337
0.003	0.0285
0.0037	0.027
0.0015	0.0412
0.0015	0.0255
0.003	-0.0038
0.0037	-0.0593
0.0067	-0.1215
0.0052	-0.1298
0.006	-0.1583
0.0067	-0.159
0.0097	-0.1163
0.0112	-0.0803
0.0067	-0.0293
0.0112	-0.0128
0.0082	-0.027
0.0045	-0.0038
0.0045	0.0375
0.003	0.0225
0.006	0.0067
0.0052	0.0352
0.0037	0.0472
0.0045	0.036
0.0045	0.0435
0.0037	0.0525
0.003	0.0765
0.0022	0.0697
0.0022	0.0705
0.0045	0.0945
0.0015	0.0645
0.0007	0.0397
0.0007	0.0052
-0.0008	0.0127
0.0007	0.0427
-0.0008	0.0277
0.0052	0.0345
0.0105	0.0322
0.0105	0.0742
0.0127	0.1267
0.0097	0.1057
0.0052	0.0157
0.0082	-0.0953
0.0052	-0.1283
0.006	-0.1185
0.009	-0.1365
0.0142	-0.0795
0.0097	0.027
-0.0008	0.006
0.0045	0.0285
0.0037	0.1042
0.0052	0.1012
0.009	0.0082
0.0045	-0.0533
0.0067	-0.0173
0.0082	-0.0353
0.0067	-0.0285
0.0052	-0.0188
0.0075	-0.0225
0.0045	-0.0233
0.0022	-0.0233
0.0045	-0.012
0.003	-0.03
0.003	-0.0068
0.0015	0.0112
0.0052	0.006
0.0105	0.0142
0.003	0.075
-0.0046	0.1185
0.0015	0.093
0.0015	0.0847
0.0015	0.0682
0.0037	0.051
0.0037	0.015
0.0037	-0.0188
0.0015	-0.0511
0.0015	-0.0863
0.003	-0.1028
0.0045	-0.1208
0.0015	-0.1058
0.003	-0.1021
0.0052	-0.0856
0.003	-0.0495
0.003	-0.0203
0.0045	-0.0015
0.0052	0.0082
0.003	0.012
0.0045	0.0247
0.0067	0.0585
0.0082	0.0577
0.0045	0.069
0.0015	0.0765
0.0045	0.045
0.0067	0.0652
0.0052	0.057
0.0045	0.0142
0.006	0.0007
0.0075	-0.015
0.0067	-0.024
0.006	-0.0248
0.006	-0.0248
0.003	-0.0173
0.003	0.0307
0.0052	0.102
0.0067	0.1807
0.0067	0.1687
0.006	0.168
0.0037	0.1357
0.0022	-0.0338
0.0037	-0.042
0.0045	-0.0285
0.0045	-0.0743
0.0052	-0.0623
0.009	-0.0698
0.006	-0.0405
0.0045	0.0022
0.0067	0.024
0.0067	-0.0098
0.0045	-0.0473
0.0052	-0.066
0.0045	-0.0938
-0.0008	-0.1058
0.0045	-0.1013
0.0045	-0.0765
0.0052	-0.042
0.0067	-0.0023
0.0037	-0.0285
0.0052	-0.0278
0.0037	-0.0105
0.003	-0.0645
0.0037	-0.1418
-0.0008	-0.1711
-0.0008	-0.114
0.0037	-0.1006
0.0022	-0.126
0.0052	-0.162
0.0082	-0.1238
0.0105	0.0607
0.0165	0.2902
0.012	0.3862
0.0045	0.2362
0.0067	0.159
0.0112	0.183
0.0127	0.2242
0.0075	0.2452
0.006	0.1042
0.0075	-0.0053
0.003	-0.0413
0.006	-0.048
0.006	-0.0555
0.0067	-0.0555
0.0082	-0.0458
0.0082	-0.0533
0.0067	-0.0458
0.0022	-0.0383
0.003	-0.0361
0.0045	-0.0353
0.006	-0.0361
0.0052	-0.0285
0.0015	-0.0165
0.0045	-0.003
0.003	-0.0195
0.0045	-0.0338
0.0037	-0.0173
0.0015	-0.0098
0.0015	0.0015
-0.0008	0.015
0.0037	-0.0015
0.0067	-0.0263
0.009	-0.0263
0.0067	-0.0195
0.0052	-0.0046
0.0067	0.0082
0.0045	-0.0015
0.006	0.018
0.009	0.036
0.0067	0.0352
0.0082	0.0375
0.0112	0.0202
0.0082	0.027
0.0045	0.0375
0.0015	0.009
0.0045	-0.0023
0.0052	0.006
0.0052	-0.0015
0.003	-0.0346
0.0022	-0.0413
0.0037	-0.0338
0.0052	-0.0525
0.0075	-0.0593
0.0015	-0.0353
-0.0015	0.0202
0.0007	0.0142
-0.0008	0.003
0.003	0.0015
0.0052	-0.0188
0.0045	0.033
0.0045	0.0262
0.0052	-0.0128
0.009	0.0225
0.009	0.0375
0.009	0.0045
0.006	-0.0608
0.006	-0.0623
0.003	-0.0225
-0.0015	-0.0068
0.0067	0.0412
0.009	0.117
0.0045	0.1125
0.0007	0.0097
-0.0008	-0.0098
-0.0008	-0.0218
0.0007	-0.0353
0.0015	0.021
0.0007	0.0772
0.003	0.0742
0.0052	-0.0188
0.0052	-0.021
0.0037	-0.0008
0.0037	0.0037
0.0067	0.0045
0.0067	-0.0458
0.0015	-0.0158
0.003	-0.015
0.0007	-0.015
-0.0015	-0.0353
0	-0.0758
0.0015	-0.0428
0.0052	-0.03
0.0037	-0.0008
0.003	0.0187
0.0045	0.0165
0.0097	0
0.009	0.024
0.003	0.0472
0.0045	0.0045
0.003	-0.0413
0.0015	-0.0375
0.0037	-0.0098
0.006	-0.0361
0.0045	-0.0675
-0.0008	-0.0728
0.003	-0.0383
0.0045	-0.0203
0.0045	-0.0533
0.006	-0.0436
0.0052	-0.003
0.0075	0.0532
0.0052	0.1132
-0.0015	0.0397
0.0007	-0.039
0.006	0.0352
0.0045	0.1207
0.0067	0.2407
0.009	0.1935
0.012	0.0157
0.0097	-0.0068
0.0075	-0.0361
0.009	-0.057
0.0075	-0.0068
0.0075	-0.0195
0.0052	-0.0413
0.0067	-0.0285
0.0052	-0.0143
0.0052	-0.0315
0.0037	-0.03
0.0037	-0.0398
0.0045	-0.0361
0.0045	-0.015
0.0022	-0.0465
-0.0008	-0.0465
0.003	-0.0278
0.0037	-0.0346
0.0052	-0.0473
0.0067	-0.0203
0.0082	0.036
0.009	0.0975
0.0105	0.1087
0.012	0.0322
0.0082	0.0082
0.0097	0.0135
0.0075	0.0015
0.0067	0.024
0.009	0.0172
0.0067	0.0127
0.0082	0.0187
0.009	0.0037
0.009	0.012
0.0082	0.0382
0.0082	0.0487
0.0052	0.048
0.0045	0.0442
0.0052	0.039
0.009	0.048
0.0045	0.039
0.003	0.0292
0.003	0.0232
0.0022	-0.0008
0.0045	-0.0091
0.0015	-0.0113
0.0045	-0.0256
0.003	-0.0315
0	-0.033
0.0015	-0.0361
-0.0008	-0.012
-0.0008	-0.0008
0	-0.0046
0.0007	-0.0203
0.0045	-0.03
0.0022	-0.0436
-0.0008	-0.0436
0.0007	-0.0368
0.0007	-0.0225
0.0007	-0.0128
0.0037	-0.0188
0.0015	-0.0128
0.003	0.0262
0.0067	0.0637
0.0052	0.0262
0.0097	-0.0083
0.0052	0.0015
0.0037	-0.0338
0.0082	-0.1365
0.0082	-0.1658
0.0075	-0.1208
0.0015	-0.1065
0.003	-0.0578
0.009	-0.0068
0.0075	0.0547
0.0105	0.1755
0.0105	0.3367
0.0105	0.246
0.0082	-0.0323
0.003	-0.0803
0.0052	-0.1358
0.0052	-0.1898
0.0045	-0.1185
0.0067	-0.0263
0.0105	0.0937
0.0045	0.09
0.0015	0.1042
0.003	0.186
0.006	0.2557
0.003	0.2587
-0.003	0.1567
0.0007	0.0225
-0.0015	-0.0593
-0.003	-0.0698
-0.0023	-0.0908
0.0015	-0.0721
0.006	-0.0878
0.006	-0.0795
0.0067	-0.0668
0.0052	-0.0713
0.0045	-0.0323
0.0037	-0.0278
0.006	-0.0518
0.0082	-0.0743
0.006	-0.0436
0.003	-0.0195
0.0045	-0.024
0.006	-0.0105
0.003	0.0022
0.0045	0.0195
0.0022	0.0127
0.0045	0.0217
0.0075	0.015
0.0045	-0.0181
0.0045	-0.0105
0.0022	-0.0068
0.0045	-0.0525
0.0045	-0.0428
0.0052	-0.006
0.0082	-0.0143
0.006	-0.0218
0.0037	-0.0143
0.0052	-0.0346
0.0067	-0.0525
0.0052	-0.0323
0.0075	-0.0338
0.0082	-0.0218
0.009	0.012
0.0045	0.0465
0.0015	0.0802
0.0022	0.0457
0.0052	0.0592
0.0045	0.081
-0.0008	0.0577
0.0022	0.0577
0.003	0.0277
0.003	0.0232
0.0037	0.0217
0.0052	0.0127
0.0015	-0.012
0.003	-0.012
0.0082	0.003
0.0105	-0.0248
0.006	0.0052
0.003	0.018
0.009	0.0217
0.0082	0.0255
0.0067	0.018
0.0052	0.0262
0.0037	0.0187
0.0022	0.0007
0.0045	-0.0285
0.0075	-0.0203
0.0045	-0.0293
0.0045	-0.0361
0.0045	-0.027
0.0052	-0.0143
0.006	0.003
0.0052	0.0127
0.006	0.015
0.0052	0.0082
0.006	0.0127
0.0052	0.0217
0.0052	0.0007
0.003	-0.0218
0.0037	0.0105
0.0075	0.0502
0.0052	0.0435
0.006	0.0412
0.006	0.081
0.0082	0.1035
0.009	0.0885
0.0045	0.0457
0.0037	-0.0225
0.0045	-0.0368
0.0045	-0.0353
0.003	-0.075
0.003	-0.1208
0.0015	-0.1763
-0.0015	-0.1665
0.0015	-0.1043
0.0052	-0.1396
0.0082	-0.1785
0.0105	-0.1208
0.0082	0.0135
0.0105	0.246
0.012	0.4402
0.0067	0.3787
0.0037	0.1717
0.003	0.132
0.0045	0.1665
0.0052	0.057
0.0007	-0.0458
-0.0023	-0.0706
0.0015	-0.0765
0.0045	-0.081
0.0052	-0.0758
0.0075	-0.0908
0.0045	-0.09
0.0052	-0.0878
0.0037	-0.078
0.0037	-0.0758
0.0082	-0.0308
0.0037	0.0007
0.003	-0.0323
0.0082	-0.0091
0.009	-0.021
0.0037	-0.0458
0.003	-0.0285
0.0067	-0.0548
0.0045	-0.1148
0.0007	-0.129
-0.0008	-0.0915
0.0007	-0.0818
0.0022	-0.0225
0.0037	0.03
0.003	0.069
0.006	0.1507
0.0097	0.2617
0.006	0.3307
0.0052	0.171
0.0052	0.0097
0.0052	0.0187
0.009	-0.033
0.0112	-0.0428
0.0082	-0.0128
0.0045	-0.0128
0.0015	-0.0008
0.0007	-0.0315
0.003	-0.0361
0.0045	-0.0428
0.0075	-0.0353
0.0067	-0.0098
0.0045	-0.0361
0.003	-0.0143
0.0067	-0.0068
0.0082	-0.0165
0.0082	-0.0218
0.0127	-0.0488
0.0052	-0.012
0.003	0.0165
0.0022	0.012
0.0015	-0.0053
0.0045	-0.006
0.0045	-0.0046
0.0045	-0.012
0.0022	0.006
-0.0008	-0.003
0.0007	-0.0015
0.0067	0.0052
0.0052	-0.0038
0	0.0202
0.0007	0.0225
0.003	0.0262
0.0037	0.0217
0.0045	0.0255
0.0045	0.0652
0.0037	0.042
0.0045	0.0247
0.0067	0.0225
0.006	0.0217
0.0045	0.0195
0.006	0.0105
0.003	0.018
0.0022	0.0082
0.003	-0.0173
0.0052	-0.063
0.0052	-0.0698
0.003	-0.066
0.0022	-0.0593
0.003	-0.0495
0.003	-0.0188
0.003	-0.0023
0.0052	-0.0105
0.006	0.0165
0.0082	-0.0068
0.006	-0.0188
0.0037	0.021
0.003	0.0435
0.003	0.054
0.0045	0.1125
0.0067	0.111
0.0045	-0.0105
0.0037	-0.063
0.003	-0.0675
-0.0023	-0.1433
0.0015	-0.2543
0.0052	-0.2385
0.0105	-0.1103
0.0082	0.0097
0.003	0.1282
0.003	0.123
0.0015	0.0705
0.0052	0.1395
0.0037	0.2032
0.003	0.1485
0.0052	-0.003
0.0075	-0.024
0.0082	0.0495
0.0075	0.0607
0.0105	0.015
0.009	-0.03
0.0052	-0.015
0.0075	-0.0263
0.009	0.0442
0.006	0.057
0.0082	0.036
0.0067	0.0577
0.0075	-0.0008
0.0075	-0.0075
0.0082	-0.0338
0.0082	-0.0495
0.0045	-0.0143
0.0052	-0.0158
0.0045	-0.021
0.0052	-0.03
0.009	-0.039
0.0067	-0.0203
0.0067	0.0165
0.0067	0.045
0.0037	0.0322
0.006	0.0217
0.0052	0.0142
0.0045	-0.015
0.0067	-0.0488
0.0045	-0.0683
0.003	-0.0293
0.0015	-0.0203
0.0045	-0.0293
0.0097	0.0037
0.0097	0.0397
0.0067	0.0675
0.0037	0.0742
0.0082	0.069
0.0082	0.0547
0.012	0.069
0.015	0.084
0.0105	0.0532
0.0052	-0.024
0.003	-0.1268
0.0052	-0.1396
0.0052	-0.1411
0.003	-0.12
0.0022	-0.0361
-0.0015	-0.03
-0.0015	-0.003
0.0007	0.0435
0.0015	0.1035
0.0045	0.1282
0.0015	0.0322
0.0015	-0.0263
0.0067	-0.0383
0.0045	-0.0203
0.0007	-0.0248
-0.0023	-0.054
0	-0.0668
0.0067	-0.0563
0.003	-0.0413
0.0007	-0.0691
0.0097	-0.0765
0.0082	-0.0675
0.0067	-0.0511
0.006	-0.0375
0.0037	-0.0218
0.0067	-0.0105
0.006	-0.0046
0.0067	0.0277
0.0045	0.0487
0.0045	0.0712
0.0052	0.075
0.0067	0.0682
0.0082	0.069
0.0067	0.057
0.006	0.042
0.003	0.0322
0.0045	0.039
0.0037	0.018
0.0007	0.0105
0.006	0.0195
0.003	0.0277
0.0015	0.0412
0.003	0.0457
0.0015	0.0585
0.0037	0.0465
0.006	0.045
0.0067	0.0427
0.0067	0.036
0.009	0.0172
0.0067	-0.0008
0.003	-0.0008
0.0037	-0.0323
0.0052	-0.0181
0.003	-0.0046
0.0015	-0.0323
0.0045	-0.0308
0.003	-0.0248
0.0022	-0.0338
0.0052	-0.0181
0.0045	-0.0165
0.0067	-0.0315
0.0082	0.009
0.0052	-0.006
0.0075	-0.0405
0.0067	-0.0488
0.0037	-0.0653
0.003	-0.0361
0.003	0.003
0.0015	0.0292
0.0022	0.0337
0.0045	0.051
0.0082	0.0315
0.0082	0.0022
0.006	0.0255
0.0067	0.009
0.003	-0.0691
-0.0008	-0.099
-0.0008	-0.0488
0	-0.0683
0	-0.1268
-0.0015	-0.168
-0.0023	-0.1088
0.0015	-0.0015
0.003	0.0645
0.003	0.1665
0.0052	0.0847
0.0127	0.0345
0.0187	0.2527
0.0165	0.3892
0.0052	0.15
-0.0008	-0.1785
0.0052	-0.15
0.0045	-0.1006
0.0045	-0.1021
0.0052	-0.0203
0.0022	0.0457
0.003	0.0622
0.0067	0.0082
0.009	0.0585
0.0015	0.1057
0.0007	0.1072
0.0067	0.0825
0.009	0.009
0.009	0.0165
0.0067	0.006
0.0045	-0.0173
0.0015	0.0037
0.0052	0.0015
0.0037	-0.0315
0.0052	-0.0563
0.0082	-0.0608
0.0037	-0.06
0.003	-0.0473
0.0052	-0.0533
0.006	-0.027
0.0037	-0.0195
0.0052	-0.0248
0.0067	-0.0053
0.003	-0.006
0.0052	-0.0008
0.0037	-0.006
0.0037	-0.0008
0.0037	0.0022
0.003	-0.0165
0.0037	-0.0293
0.0015	-0.027
0.006	-0.0218
0.0097	-0.0015
0.0082	0.0045
0.0052	-0.0008
0.0052	0.0187
0.0075	0.018
0.0052	0.0142
0.0082	0.0247
0.0052	0.0315
0.0045	0.0337
0.0045	0.0315
0.0015	0.0187
0.0052	0.0195
0.0067	0.0292
0.0052	0.0022
0.0067	-0.0008
0.0075	0.0112
0.003	0.0082
0.0045	0.012
0.0045	0.0067
0.0037	0.0037
0.003	-0.015
-0.0015	-0.0091
-0.0046	-0.0263
-0.0015	-0.0165
0.0045	-0.0023
0.0037	-0.0495
0.003	-0.0548
0.003	-0.054
0.0037	-0.0623
0.0052	-0.0495
0.003	-0.0218
0.006	0.009
0.0082	0.012
0.0045	-0.0218
0.0045	-0.0338
0.0045	-0.0181
0.0052	-0.006
0.0075	0.0262
0.0052	0.0435
0.0052	0.0547
0.0067	0.1095
0.0127	0.1072
0.0127	0.0435
0.0015	-0.081
0.0037	-0.213
0.003	-0.1995
0.0045	-0.1545
0.0067	-0.108
0.0052	-0.0233
0.0097	0.165
0.0127	0.426
0.0172	0.4995
0.0127	0.3645
0.0075	0.24
0.0037	0.0862
0.0067	-0.012
0.006	0.009
-0.0008	-0.1028
0.0015	-0.1335
0.003	-0.0968
0.0052	-0.1208
0.003	-0.1155
-0.0008	-0.1305
-0.0008	-0.114
0.0007	-0.0871
0.0015	-0.0593
-0.0008	-0.0436
0.0022	-0.057
0.0045	-0.0608
0.0052	-0.003
0.0022	0.0412
0.003	0.066
0.0067	0.0757
0.0045	0.0105
0.0052	0.0097
0.0045	0.0247
0.003	0.024
0.0007	-0.0353
0.0052	-0.0608
0.0112	-0.0135
0.009	-0.0181
0.0075	-0.012
0.0075	-0.0225
0.0067	-0.0105
0.0075	0.0097
0.0052	-0.0008
0.0037	-0.0008
0.0045	-0.0585
0.0045	-0.1553
0.0022	-0.195
0.0007	-0.1988
-0.0008	-0.2198
-0.003	-0.168
-0.0008	-0.0443
0.0015	0.066
0.0015	0.1545
0.0045	0.2355
0.006	0.363
0.009	0.3022
0.0067	0.0997
0.0045	0.0187
0.006	-0.0008
0.0022	-0.0068
0.0007	-0.021
0.003	-0.0428
0.0045	-0.042
0.0037	-0.0256
0.0045	-0.012
0.0045	-0.039
0.0045	-0.0188
0.0045	0.0427
0.0067	0.0412
0.003	0.0367
0.0007	0.0352
0.0045	0.0187
0.0045	0.0315
0.0045	0.0412
0.0067	0.0172
0.009	0.0165
0.0067	0.0465
0.0097	0.0412
0.0135	0.0465
0.009	0.036
0.009	0.0067
0.0142	-0.0046
0.0142	-0.0285
0.0037	-0.048
0.0007	-0.0668
0.003	-0.03
0.0045	0.0225
0.0097	0.072
0.0082	0.09
0.009	0.0892
0.006	0.111
0.0045	0.0352
0.0082	-0.0436
0.0015	-0.192
0.0052	-0.294
0.0022	-0.1823
0.0007	-0.1545
0.0045	-0.063
0.0022	0.069
0.0045	0.1117
0.0037	0.1567
0.0105	0.261
0.012	0.3352
0.0045	0.0915
0.006	-0.1103
0.0037	-0.0728
0.0045	-0.0735
0.0045	-0.0585
0.0052	-0.0758
0.0022	-0.0765
0.0022	-0.0278
0.0082	-0.0098
0.003	0.0142
0.0015	-0.0135
0.0022	-0.0128
0.0067	-0.0091
0.0045	-0.0128
-0.0008	-0.0105
0.0052	-0.0375
0.0037	0.0007
0.003	0.0165
0.006	0.0082
0.0052	0.0165
0.0045	0.0135
0.003	-0.0008
0.0022	-0.0083
0.0045	-0.0128
0.0015	-0.0105
0.0015	-0.0203
0.003	-0.0361
0.006	-0.0083
0.0067	0.0067
0.006	0.0052
0.0045	0.0015
0.003	0.0315
0.003	0.0217
0.0015	-0.0256
0.0015	-0.042
0.0037	-0.048
0.006	-0.0353
0.0075	-0.0263
0.0052	0.0075
0.0052	0.0307
0.0067	0.0847
0.009	0.1432
0.009	0.123
0.0082	0.0375
0.0067	-0.012
0.0067	0.0015
0.006	-0.0398
0.0075	-0.0585
0.0045	-0.0473
0.003	-0.0158
0.0067	0.0067
0.0045	-0.0181
0.003	-0.033
0.0045	-0.0203
0.0007	-0.0113
-0.0008	-0.0361
-0.0023	-0.0615
0.0007	-0.0953
0.0022	-0.0488
0	-0.0083
0.0052	-0.0158
0.0045	0.0022
0.0067	0.0022
0.009	0.0292
0.0052	0.0097
0.009	0.0067
0.009	0.0742
0.0045	0.1095
0.0052	0.153
0.0067	0.1762
0.003	0.1545
0.0022	0.1027
0.003	0.0322
0.0037	0.0217
0.0045	0.0142
0.0045	-0.0158
0.006	-0.027
0.0015	-0.0833
0.003	-0.1441
0.006	-0.1441
0.0045	-0.0923
-0.0046	-0.0825
-0.0008	-0.0795
0.0052	-0.0323
0.0045	-0.012
0.0097	0.0937
0.0097	0.159
0.0082	0.018
0.0082	-0.0458
0.0082	-0.0278
0.0052	-0.0428
0.0045	-0.039
0.009	-0.054
0.0052	-0.045
0.0015	-0.0338
0.0067	-0.021
0.009	0.0165
0.0037	0.0187
0.0022	0.012
0.003	0.015
0.003	-0.0046
0.003	-0.0105
0.0045	-0.0195
0.0052	-0.0293
0.0052	-0.039
0.0037	-0.0488
0.0015	-0.006
0.0015	0.0435
0.0052	0.0592
0.0052	0.048
0.0067	0.0322
0.0105	0.039
0.0082	0.0202
0.0075	-0.0098
0.0112	-0.0143
0.0105	0.0247
0.0067	0.0465
0.0052	0.0352
0.0045	0.0322
0.0082	0.0255
0.0067	0.0022
0.0052	-0.0346
0.0067	-0.0068
0.0052	0.0435
0.0097	0.018
0.0052	-0.063
0.0037	-0.0683
0.003	0.0157
-0.0008	0.0337
0.0037	0.0765
0.0022	0.1275
0.0007	0.1507
0.0015	0.1822
0.0045	0.1875
0.0037	0.1747
0.0022	0.0225
0.0045	-0.0803
0.0037	-0.0743
0.0037	-0.1065
0.003	-0.1275
0.0037	-0.132
0.0045	-0.0998
0.0045	-0.0795
0.0045	-0.0825
0.003	-0.0585
0.0052	-0.0375
0.009	0.0195
0.0082	0.0472
0.0052	0.0142
0.0037	-0.0518
0.006	-0.0856
0.0052	-0.0503
0.0045	-0.0165
0.0045	0.039
0.0045	0.0487
0.0045	0.0255
0.003	0.0435
0	0.0585
0.003	0.0427
0.0015	0.054
0	0.0615
0.0022	0.0262
0.006	0.0232
0.003	0.0142
0.003	-0.0361
0.0067	-0.0495
0.003	0.003
0.0022	-0.0091
0.0067	-0.0375
0.009	-0.0323
0.0075	-0.084
0.003	-0.0511
0.0015	-0.0233
0.0022	-0.0511
0.0022	0.003
0.0007	0.0105
0.0015	-0.003
0.0075	0.009
0.0067	0.0187
0.0045	-0.0165
0.0067	-0.1275
0.0075	-0.1538
0.0097	-0.1328
0.0135	-0.1073
0.009	-0.039
0.0067	0.0487
0.0105	0.2152
0.0157	0.3465
0.012	0.3007
0.0052	0.213
0.006	0.1065
0.003	-0.0428
0.0052	-0.1208
0.0022	-0.1508
0.0052	-0.186
0.0105	-0.2265
0.009	-0.192
0.0082	-0.0203
0.0037	0.135
0.0045	0.243
0.0067	0.3457
0.0082	0.2737
0.0067	0.1087
0.0037	0.1237
0.006	0.0667
0.0015	-0.0698
-0.0008	-0.0706
0.0007	-0.1028
0.003	-0.1028
0.0067	-0.1035
0.0082	-0.1035
0.003	-0.0533
-0.0008	-0.0653
-0.0015	-0.063
-0.0023	-0.0548
-0.0008	-0.0428
0	-0.0518
0.0037	-0.0593
0.0067	-0.0593
0.0067	-0.0525
0.0052	-0.0128
0.0067	-0.0105
0.009	0.0255
0.0052	-0.03
0.0067	-0.1343
0.0052	-0.1343
0.0045	-0.0608
0.0067	0.0007
0.0045	0.0322
0.003	0.0922
0.0045	0.1125
0.0067	0.1432
0.0082	0.2295
0.0082	0.2362
0.0052	0.0997
0.0052	0.0082
0.0045	-0.0158
0.0037	-0.0578
0.0037	-0.0225
0.0045	-0.0225
0.0067	-0.0068
0.0082	0.0067
0.009	-0.0233
0.0075	-0.0083
0.0067	-0.0068
0.0045	0.0112
0.0007	0.0472
-0.0008	0.0247
0.003	0.015
0.0082	-0.0015
0.0067	-0.0315
0.0075	-0.0225
0.0097	-0.0315
0.0052	-0.0263
0.009	-0.0315
0.009	-0.0383
0.0037	-0.024
0.0067	-0.0068
0.0045	0.0082
0.0067	-0.006
0.0142	-0.0091
0.009	-0.0068
0.0045	0.0187
0.0052	-0.0285
0.0045	-0.03
0.0075	0.0097
0.0075	-0.006
0.0052	0.0015
0.0037	-0.0225
-0.0015	-0.0143
0.0007	-0.0368
0.003	-0.0361
0.0022	0.003
0.0045	0.0142
0.003	0.0435
0.0022	0.0322
0.0045	0.0225
0.003	0.0322
0.006	0.0315
0.0067	0.06
0.0007	0.0495
0.0007	0.0052
0.0022	0
0.0007	0.0022
-0.0015	0.0082
-0.0023	-0.0015
-0.0046	-0.0308
-0.003	-0.0398
0.003	-0.0698
0.003	-0.1718
0.003	-0.213
-0.0008	-0.159
-0.0008	-0.1155
0.0015	-0.0278
0.0015	0.105
0.0045	0.0975
0.0075	0.1297
0.0157	0.3247
0.0112	0.33
0.0075	0.1987
0.0082	0.0967
0.0067	0.0457
0.0052	-0.0195
0.0007	-0.1283
0.0007	-0.111
0.0045	-0.0795
0.0097	-0.0706
0.0082	-0.0398
0.0052	-0.0436
0.0052	-0.033
0.0045	0.0277
0.003	0.0645
0.0052	0.0157
0.0045	-0.0533
0.0045	-0.0878
0.0067	-0.075
0.0052	-0.039
0.006	-0.03
0.003	-0.0068
0.0045	0.0285
0.0045	0.0585
0.0022	0.057
0.0082	0.0127
0.006	-0.0053
0.0067	-0.0008
0.0082	-0.0068
0.0075	0.0105
0.0082	0.0045
0.0082	-0.0098
0.0075	0.0105
0.0052	0.0015
0.0067	-0.0188
0.0082	-0.1065
0.009	-0.147
0.009	-0.0863
0.0075	-0.0465
0.0067	0.0007
0.0052	0.0667
0.0052	0.1095
0.0022	0.1402
0.0052	0.213
0.006	0.246
0.0037	0.111
0.0045	-0.0091
0.0052	-0.0181
0.0082	-0.042
0.0037	-0.0398
0.0052	-0.0203
0.003	-0.0555
0.003	-0.0645
0.0052	-0.0721
0.0037	-0.0848
0.0067	-0.045
0.0045	-0.039
0.0075	-0.0593
0.0082	-0.03
0.0045	0.012
0.003	-0.0361
0.0052	-0.0795
0.0045	-0.0563
0.0015	-0.0308
0.0045	0.0052
0.0015	0.0007
0.006	0.0045
0.0052	0.0367
0.0022	0.0495
0.0015	0.0532
-0.0015	0.0307
0.0015	0.018
0.0007	0.009
0.003	-0.0165
0.0037	-0.03
0.006	-0.039
0.009	-0.0795
0.0067	-0.117
0.0082	-0.108
0.0045	-0.084
0.0037	-0.0615
0.0052	-0.0503
0.0067	-0.0315
0.0097	0.0562
0.0105	0.1252
0.0105	0.183
0.003	0.147
0.003	0.036
0.0015	0.057
0.0007	0.0832
0.0075	0.0795
0	0.0697
-0.0008	0.0427
0.003	0.0472
-0.0023	0.0082
0.0007	0.0082
0	0.045
0.003	0.0525
0.0037	0.039
0.003	0.036
0.0067	0.0802
0.009	0.1207
0.009	0.1882
0.0015	0.096
0.0082	-0.081
0.015	-0.0795
0.006	-0.0548
0.0037	-0.0413
0.0015	-0.0458
0.0007	-0.057
0.0022	-0.0315
0.0007	-0.0398
0.0015	-0.015
-0.0008	-0.0188
0.003	-0.0375
0.0052	-0.042
0.0045	-0.0713
0.0037	-0.0555
0.0052	-0.027
0.0052	-0.0143
0.003	0.0007
0.0015	-0.006
0.0052	-0.0053
0.0045	0.006
0.003	-0.0188
0.0045	-0.0173
0.0045	0.0105
0.0067	0.0165
0.0022	0.0187
0.0052	0.0007
0.0067	-0.0263
0.0082	-0.0105
0.0075	-0.0068
0.0067	-0.0165
0.0142	-0.0008
0.009	0.0225
0.0052	0.0097
0.0045	-0.03
0.0045	-0.0293
0.006	-0.0436
0.006	-0.0998
0.009	-0.1043
0.012	-0.078
0.0112	-0.0833
0.0067	-0.0293
0.0052	0.036
0.0075	0.0427
0.0075	0.0645
0.0045	0.084
0.0045	0.0352
0.0015	-0.099
0	-0.1043
0.0045	-0.0458
0.0052	-0.0173
0.006	0.042
0.006	0.0495
0.0037	0.1072
0.0052	0.1785
0.0097	0.2647
0.0127	0.2047
0.0082	0.0547
0.0052	0.0397
0.0105	0.0045
0.006	0.0045
0.0015	0.0427
0.003	0.048
0.003	0.0667
0.003	0.0585
0.0022	0.0105
0.0022	-0.039
0.0015	-0.0188
0.0037	-0.0293
0.006	-0.045
0.003	-0.0443
0.003	-0.045
0.0052	-0.0436
0.0037	-0.0713
0.0037	-0.0698
0.0052	-0.0825
0.0022	-0.1185
0.0045	-0.1223
0.0082	-0.0638
0.0082	-0.0233
0.0082	0.0345
0.006	0.0997
0.0105	0.0832
0.0105	0.0795
0.0052	0.0937
0.0067	0.1147
0.0007	0.0315
-0.0015	-0.0698
0.0015	-0.0833
0.0082	-0.0848
0.0082	-0.0143
0.0045	0.0045
0.0082	0.0532
0.0052	0.09
-0.0008	-0.0278
0.0015	-0.0645
0.0015	-0.0368
0.0015	-0.0181
0.0022	-0.0645
0.003	-0.0818
0.0052	-0.0458
0.006	-0.0525
0.003	-0.063
0.0052	-0.0465
0.0052	-0.006
0.0045	-0.0181
0.0067	-0.0143
0.0067	0.0217
0.0067	0.033
0.0045	0.0217
0.0052	0.0217
0.0052	0.039
0.003	0.0157
0.0022	-0.0075
0.0022	-0.0038
0.0015	0.0157
-0.0008	0.0555
0.003	0.0412
0.006	0.0255
0.0052	0.0337
0.0045	0.0105
0.0007	-0.0203
0.0015	-0.012
0.0007	0.0135
0.0015	-0.0083
0.0052	0.003
0.0037	0.0067
0.003	0.0052
0.0045	0.018
0.0067	-0.0008
0.0067	-0.0046
0.0037	-0.0105
0.0082	-0.0323
0.0075	-0.0413
0.006	0
0.006	0.0217
0.0075	0.0322
0.0105	0.081
0.0112	0.1207
0.012	0.1642
0.0112	0.1545
0.0067	0.0765
0.0052	0.0382
0.006	0.0225
0.003	-0.0173
0.0022	-0.0105
0.0052	0.009
0.0007	0.003
0.003	-0.0315
0.0067	-0.0706
0.0045	-0.057
0.003	-0.0683
0.0022	-0.09
0.0015	-0.0728
0.0007	-0.099
0.0015	-0.1343
-0.0015	-0.12
-0.003	-0.0765
0.0007	-0.024
-0.0015	0.0187
-0.003	0.0412
-0.0015	0.1132
-0.0015	0.1897
0.0015	0.228
0.003	0.2212
0.0015	0.1102
0.0037	0.0285
0.0045	-0.0285
0.0022	-0.057
0.0045	-0.021
0.0045	-0.0518
0.003	-0.0458
0.006	-0.0135
0.0105	0.0112
0.0112	-0.0046
0.009	-0.027
0.0082	0.0112
0.0097	0.009
0.0082	0.0127
0.0112	0.0285
0.0075	-0.0473
0.006	-0.0945
0.0105	-0.0721
0.0105	-0.0488
0.009	-0.0158
0.0075	-0.0263
0.006	-0.0218
0.0067	0.0142
0.0067	-0.0181
0.0052	-0.0188
0.0037	-0.0278
0.0037	-0.0181
0.0052	0.003
0.0037	-0.0218
-0.0015	-0.0353
0.0037	-0.03
0.009	-0.0143
0.0067	0.0045
0.0052	0.0262
0.0045	0.045
0.0045	0.0427
0.006	-0.006
0.0075	-0.0315
0.0082	-0.003
0.0082	-0.0046
0.0052	-0.0158
0.006	-0.0278
0.006	-0.0668
0.003	-0.084
0	-0.0683
0.0045	-0.0938
0.0067	-0.0758
0.0067	-0.0143
0.0067	0.0495
0.0082	0.1057
0.0105	0.1395
0.009	0.1852
0.0052	0.0975
0.0007	-0.0263
0.003	-0.0361
0.009	-0.0525
0.009	-0.0015
0.009	0.0195
0.0045	-0.0008
0.0007	0.0262
0.0015	-0.0105
0.003	-0.0218
0.0015	-0.0023
0.0052	-0.0105
0.006	0.015
0.0067	0.0802
0.0075	0.0832
0.0022	0.0105
0.0037	-0.024
0.0082	-0.0458
0.009	-0.0375
0.006	-0.006
0.0067	0.0262
0.0052	0.054
0.0037	0.0285
0.003	0.015
-0.0008	0.03
0.0007	0.0217
0.0015	0.0307
0.0075	0.0367
0.0067	0.0067
0.0007	-0.0008
0.003	-0.0368
-0.0008	-0.0353
0.003	-0.0083
0.0045	-0.0195
0.0037	0.018
0.0082	0.0712
0.0045	0.0862
0.0082	0.0262
0.009	0.0007
0.0052	0.066
0.003	0.0772
0.0015	0.0322
0.0037	0.0127
0.003	0.0067
0.0007	-0.0158
-0.0015	-0.0375
-0.0015	-0.0443
0.0015	-0.0413
-0.0008	-0.042
0.0045	-0.0728
0.0082	-0.066
0.009	-0.0091
0.0105	0.006
0.0097	-0.0068
0.0097	-0.0511
0.0082	-0.1283
0.0067	-0.1973
0.0007	-0.147
0.0022	-0.0683
0.0052	-0.0458
0.0045	0.033
0.0067	0.075
0.0015	0.1222
-0.0008	0.1957
0.0007	0.222
0.0015	0.1627
-0.0008	0.036
0.0015	0.0067
0.003	0.0007
0.0045	-0.0135
0.0052	0.009
0.0052	-0.0068
0.003	-0.0315
0.0022	-0.0158
0.0037	-0.0181
0.0075	-0.03
0.0105	-0.0188
0.0082	-0.039
0.006	-0.0436
0.003	-0.0495
0.003	-0.0563
0.0015	-0.0323
0.0045	-0.03
0.0052	-0.0218
0.0052	-0.0368
0.0052	-0.0225
0.003	0.0097
0.0052	-0.0053
0.003	-0.012
0.0045	-0.0008
0.003	0.0217
0.003	0.012
0.0037	0.0217
0.0022	0.0277
0.0067	0.009
0.009	-0.0023
0.0105	0.0015
0.006	0.0285
0.0067	0
0.0067	-0.0165
0.0052	0.0105
0.0052	0.0165
0.0015	0.0007
0.0015	-0.0165
0.0022	-0.0083
0.003	-0.003
0.0052	-0.0128
0.006	-0.0181
0.003	0.0007
0.003	0.0015
0.0052	0.009
0.003	0.0127
0.003	-0.0105
0.0022	-0.0075
0.0067	0.0082
0.0082	0.0262
0.0082	0.0127
0.0075	-0.0225
0.0067	-0.0263
0.012	0.006
0.012	-0.0225
0.0135	-0.066
0.0127	-0.06
0.0075	-0.0465
0.006	-0.0098
0.0067	0.0157
0.0075	0.0322
0.006	0.0555
0.0045	0.0082
0.0052	-0.0585
0.0052	-0.057
0.0015	-0.0638
-0.0008	-0.0473
0.0052	-0.0068
0.0067	0.0547
0.0045	0.0997
0.0045	0.159
0.009	0.3255
0.0067	0.2707
0.0037	0.1065
0.0015	0.093
0.0015	0.0135
0.0037	-0.0338
0.009	-0.0285
0.0105	0.0397
0.0045	0.0705
0.0007	-0.0375
0.003	-0.045
0.0022	-0.0436
0.003	-0.0938
0.0037	-0.1605
0.0007	-0.1328
-0.0015	-0.033
0.0007	-0.0653
0.0052	-0.0608
0.0037	-0.0383
0.0045	-0.0503
0.0052	-0.033
0.0037	-0.0413
0.003	-0.0225
0.003	0.0037
0.0045	0.0435
0.0015	0.0472
0.0045	0.0142
0.003	0
0.0022	-0.0173
0.0052	0.0105
0.0022	0.0105
0.0007	-0.0256
0.0015	-0.0195
0.0052	-0.0038
0.0015	0.003
0.0045	-0.063
0.0045	-0.1208
0.0045	-0.078
0.0082	-0.0203
0.0022	0.006
0.0052	0.0592
0.0052	0.1297
0.0022	0.174
0.0075	0.219
0.012	0.2722
0.0127	0.1567
0.0067	-0.0645
0.0045	-0.0983
0.0015	-0.0668
0.003	-0.0091
0.0045	0.0397
0.0045	0.0127
0.009	0.0255
0.0135	0.0472
0.0157	0.0795
0.0112	0.009
0.009	-0.105
0.009	-0.0788
0.0082	-0.057
0.0052	-0.0361
0.0067	0.0022
0.0067	0.0075
0.0067	0.0555
0.0052	0.0547
0.0022	-0.0533
0.0037	-0.0878
0.003	-0.0308
0.0052	-0.0256
0.0105	0.0277
0.0097	0.1162
0.0052	0.0952
0.0022	-0.0181
0.0007	-0.066
0.0045	-0.0743
0.0052	-0.1103
0.0052	-0.1028
0.0052	-0.0938
0.0052	-0.075
0.0052	-0.0353
0.0015	-0.03
0.003	-0.0188
0.003	-0.0248
0.0015	-0.0323
0.0015	0.0067
-0.0015	0.0352
-0.0015	0.0877
-0.0008	0.1035
0.0007	0.057
0.0045	0.063
0.0037	0.099
0.0067	0.063
0.0067	-0.0113
0.0007	-0.0518
0.0015	-0.0743
0.006	-0.0706
0.0052	-0.0593
0.0075	-0.0795
0.009	-0.108
0.0052	-0.0953
0.003	-0.0458
0.006	-0.0353
0.009	-0.0473
0.0067	-0.0323
0.0067	0.0307
0.0105	0.0622
0.0127	0.078
0.009	0.1065
0.0067	0.1207
0.0052	0.0172
0.0052	-0.0788
0.0052	0.003
0.0037	0.066
0.0022	0.1642
0.0015	0.2392
0.0052	0.261
0.0067	0.171
0.0067	0.0022
0.0007	-0.048
-0.0015	-0.0856
0.003	-0.0563
-0.0008	-0.0353
0.003	-0.042
0.0075	0.1207
0.0052	0.252
0.0045	0.264
0.0082	0.2932
0.0135	0.213
0.0105	0.063
0.003	-0.075
0.0022	-0.1718
0.006	-0.2055
0.0082	-0.2303
0.0082	-0.2108
0.0052	-0.237
0.0037	-0.1688
0.0037	-0.0728
0.009	-0.0758
0.0082	-0.0608
0.0075	-0.0525
0.0052	-0.0008
0.0045	0.0382
0.009	0.0015
0.0045	-0.0885
0	-0.0825
0.0045	-0.048
0.003	-0.0938
0.0037	-0.0735
0.0045	-0.03
0.003	-0.0181
0.006	-0.0533
0.0067	-0.0765
0.0067	-0.0465
0.009	0.0127
0.0052	0.0015
0.0045	-0.0218
0.0052	0.0142
0.0007	0.012
-0.0053	0.0532
-0.003	0.0832
-0.0015	0.066
-0.0046	0.0787
-0.0053	0.0855
-0.0015	0.057
0.0015	0.015
0.0007	0.0165
0.0022	0.0255
0.0037	0.003
0	-0.0143
0.0007	-0.0361
0.0045	-0.0503
0.0067	-0.0346
0.003	-0.0413
0.0022	-0.0533
0.0067	-0.0188
0.0075	0.021
0.0045	0.0202
0.0082	0.0592
0.0082	0.078
0.0045	0.0412
0.0052	0.051
0.0045	0.0435
0.0052	0.0375
0.0037	0.018
0.0067	0.0232
0.0082	0.0345
0.009	0.012
0.0097	0.039
0.0105	0.0285
0.012	0.012
0.009	0.0202
0.0067	0.0202
0.0075	0.0427
0.0082	0.0465
0.0082	0.024
0.009	0.036
0.009	0.0495
0.0045	0.0495
0.0045	0.0457
0.0045	0.0307
0.0052	0.0345
0.0045	0.0127
0.003	-0.0113
0.006	0.0067
0.0075	-0.0015
0.0075	-0.0443
0.0082	-0.063
0.0067	-0.0653
0.003	-0.0608
0.0045	-0.0525
0.0075	-0.048
0.0067	-0.0428
0.0105	-0.0465
0.0105	-0.0533
0.0045	-0.0405
0.0037	-0.0203
0.0045	-0.0143
0.0052	-0.0053
0.0052	-0.0091
0.003	0.0037
0.0007	0.0217
0.0015	0.03
0.0022	0.0457
0.0007	0.051
0	0.0592
0.0007	0.0285
0.0015	0.0082
0.003	0.003
0.003	-0.0128
0.0037	-0.033
0.0007	-0.0353
0	-0.048
0.0007	-0.0878
0.0022	-0.0758
0.0045	-0.0398
0.0037	-0.0248
0.0075	0.0067
0.0045	0.0255
0.0045	0.0255
0.0052	0.0255
0.0037	-0.0053
0.0067	-0.0218
0.003	-0.0158
0.0052	-0.0488
0.009	-0.0863
0.0067	-0.1643
0.0052	-0.2018
0.0052	-0.1088
0.0075	-0.039
0.009	0.066
0.0142	0.2362
0.0157	0.3637
0.0157	0.3712
0.015	0.4275
0.0067	0.423
0.0052	0.1012
0.0097	-0.0533
0.0052	-0.0405
0.0015	-0.105
0.003	-0.0833
0.0045	-0.1088
0.0052	-0.114
0.0037	-0.09
0.0015	-0.0893
0.0022	-0.0511
-0.0008	-0.0428
-0.0015	-0.0511
0.0015	-0.048
0.0015	-0.048
-0.0038	-0.0563
-0.0023	-0.0488
-0.0046	-0.0256
-0.0053	-0.027
0.0015	-0.0256
0.003	-0.0083
0.003	0.015
0.003	0.0885
0.0067	0.1372
0.0052	0.1072
0.0007	0.051
0	0.0045
0.0015	-0.0436
-0.0008	-0.0338
-0.0023	-0.0105
0.003	-0.0428
0.003	-0.033
0.0045	-0.0398
0.0067	-0.0608
0.0015	-0.0458
0.0022	-0.063
0.0067	-0.0698
0.0067	-0.0765
0.0105	-0.0608
0.0097	-0.0135
0.0052	-0.0165
0.0045	-0.024
0.0045	-0.0398
0.0082	-0.0465
0.0112	-0.0015
0.0142	0.021
0.0127	0.018
0.0105	0.039
0.0105	0.0637
0.0067	0.0442
0.0022	0.0217
0.0015	0.0195
0.003	0.0285
0.0052	0.0487
0.0067	0.051
0.0075	0.0592
0.009	0.072
0.006	0.072
0.006	0.0045
0.0075	-0.0323
0.0052	-0.0098
0.0022	-0.0308
0.0045	0.0075
0.0075	0.045
0.0045	0.024
0.003	-0.006
0.0075	0.0127
0.0082	0.0127
0.0067	-0.0098
0.0037	0.0225
-0.0008	-0.0068
0.0015	-0.0443
0.003	-0.0638
0.0007	-0.0555
0.0022	-0.0413
0.0022	-0.0188
0.0015	0.0172
0.0015	0.024
0.0007	0.0412
-0.0008	0.0375
0.0015	0.0397
0.0007	0.0435
-0.0015	0.0277
0.0022	-0.0346
0.0007	-0.0721
-0.0038	-0.0525
-0.0053	-0.1328
-0.003	-0.2033
-0.0008	-0.1508
-0.0008	-0.1148
0.0045	-0.0728
0.0052	0.0247
0.0052	0.093
0.009	0.1027
0.0127	0.186
0.0135	0.288
0.009	0.144
0.009	-0.0413
0.0105	-0.057
0.012	-0.1485
0.0097	-0.1493
0.0075	-0.0871
0.0105	-0.0413
0.012	0.0945
0.0105	0.1702
0.009	0.2475
0.0075	0.2655
0.009	0.2647
0.0052	0.2692
0.003	0.141
0.0052	-0.0046
0.0067	-0.0525
0.0052	-0.0885
0.0067	-0.1223
0.006	-0.093
0.0037	-0.0975
0.0045	-0.0938
0.0045	-0.0908
0.0075	-0.0908
0.0105	-0.0735
0.0082	-0.1035
0.0045	-0.0968
0.0015	-0.0488
-0.0008	-0.0555
0.0015	-0.0353
0.0045	0.0262
0.0037	0.1492
0.0067	0.198
0.0075	0.1042
0.0015	-0.0038
0.003	-0.0638
0.006	-0.0436
0.0022	-0.0495
0.003	-0.0203
0.003	0.033
0.0015	0.024
0.003	0.0105
0.0045	-0.015
0.0045	-0.0353
0.0052	-0.024
0.0075	0.0112
0.0097	0.0352
0.0067	0.0337
0.0007	0.0262
0.0037	0.0225
0.0015	0.024
0.0015	0.0007
0.003	0.0075
0.006	0.0225
0.0045	0.0015
0.0007	-0.0023
0.0052	-0.03
0.0075	-0.0608
0.012	-0.0878
0.009	-0.09
0.0105	-0.0361
0.0097	-0.0256
0.0112	-0.0383
0.0105	-0.0495
0.009	-0.0511
0.012	-0.0203
0.0045	-0.0053
0.0037	-0.0068
0.006	-0.024
0.0045	0.0082
0.006	0.0307
0.0045	0.009
0.0052	-0.015
0.009	-0.0458
0.0082	0.0007
0.0052	0.0975
0.0052	0.132
0.0067	0.0727
0.0045	-0.012
0.0037	-0.024
0.0045	-0.0256
0.0007	-0.0653
0.0015	-0.0503
0.003	-0.027
0.0007	-0.0225
0.0045	-0.0795
0.0075	-0.126
0.003	-0.0323
0	0.1005
-0.0008	0.1237
-0.003	0.0225
0.0022	-0.0015
0.0052	0.0375
0.006	0.1065
0.0105	0.1837
0.0045	0.1867
0.0022	0.114
0.006	0.0315
0.0075	0.0292
0.0052	0.0045
0.006	-0.0225
0.009	-0.0525
0.009	-0.0511
0.009	-0.057
0.0097	-0.0645
0.0105	-0.0195
0.0067	-0.033
0.0082	-0.03
0.0112	-0.015
0.0037	-0.0068
0.0007	-0.0015
0.0052	0.0217
0.0015	0.0382
0.0007	-0.0165
0.0045	-0.0143
0.0015	-0.0128
0.0022	-0.048
0.0037	-0.0728
0.0037	-0.1035
0.0082	-0.0743
0.0105	-0.0195
0.006	-0.0713
0.0052	-0.1381
0.0037	-0.0863
0.0045	-0.0128
0.0045	-0.024
0.0045	-0.078
0.0007	-0.1103
-0.0008	-0.0511
0.0037	0.0637
0.003	0.1522
0.0045	0.207
0.003	0.1635
0.003	0.207
0.0007	0.2797
-0.0015	0.2707
0.0007	0.2317
-0.0023	0.0652
-0.003	-0.0181
-0.0008	0.003
0.0007	-0.0293
0.0007	-0.0105
0	0.0322
0.0007	-0.0075
0.0015	-0.0856
-0.0015	-0.0668
0.003	-0.0323
0.0045	-0.0338
0.0045	-0.0548
0.009	-0.0788
0.009	-0.0585
0.0105	-0.0728
0.006	-0.0645
0.0037	-0.0518
0.0067	-0.0518
0.0097	-0.063
0.012	-0.0735
0.009	-0.0263
0.0067	-0.0645
0.0082	-0.1088
0.009	-0.0728
0.0082	-0.0668
0.0097	-0.0338
0.0105	0.0127
0.0142	0.0547
0.0067	0.009
0.003	-0.0691
0.009	-0.0248
0.0037	0.0052
0.0052	0.0682
0.009	0.141
0.009	0.192
0.009	0.1575
0.009	0.012
0.0105	0.0217
0.0097	0.0232
0.009	-0.0256
0.0082	-0.042
0.009	-0.0361
0.0067	0.009
0.0075	-0.03
0.0075	-0.0383
0.003	-0.0256
0.003	-0.012
0.0022	0.0037
0.0045	0.0015
0.0045	0.0435
0.0015	0.0442
0.0015	0.0607
-0.003	0.0577
0.0007	0.0247
0.0007	0.0247
0.0015	0.0187
0.0007	0.0285
-0.0008	0.0045
0.0022	-0.0293
0.0045	-0.063
0.0045	-0.0893
0.0037	-0.0818
0.0045	-0.0615
0.0052	-0.0256
0.003	0.033
0.0015	0.069
0.0037	0.111
0.0067	0.1275
0.006	0.072
0.0015	-0.0083
-0.0008	-0.057
-0.0008	-0.0285
0.0022	-0.042
0.0037	-0.0315
0.0022	0.0112
0.003	0.0075
0.0015	0.0097
0.006	-0.0188
0.0045	-0.042
0.0045	-0.0361
0.0067	-0.1155
0.0067	-0.1433
0.009	-0.0023
0.0022	0.057
0.0015	0.0375
0.0007	0.105
0.0015	0.144
0.003	0.1125
0.0037	0.0705
0.0075	0.0457
0.0052	-0.1185
0.0052	-0.3158
0.009	-0.252
0.0052	-0.1373
0.003	-0.0713
0.0067	0.0165
0.0045	0.1327
0.0067	0.2955
0.0105	0.408
0.009	0.2887
0.0075	0.0765
0.0112	0.0082
0.0127	-0.0256
0.0082	-0.06
0.0112	-0.0315
0.009	-0.0743
0.0067	-0.1553
0.0052	-0.1741
0.0045	-0.132
0.0067	-0.0533
0.003	-0.0053
0	0.0052
0.0015	0.009
0.006	0.0907
0.009	0.186
0.0082	0.1492
0.003	0.048
0.003	0.0315
0.0075	0.0105
0.0045	-0.0361
0.0045	-0.0518
0.0075	-0.0623
0.0052	-0.0338
0.0045	0.0127
0.0015	0.0172
0.0015	0.0082
0.0015	0.0255
0.0007	-0.0091
0.0037	-0.0833
0.0052	-0.096
0.0067	-0.0968
0.0075	-0.1268
0.0067	-0.1305
0.0015	-0.081
0.0015	-0.105
0.006	-0.1508
0.0037	-0.1253
0.0015	-0.0938
0.0037	-0.0503
0	0.012
0.0015	0.06
0.0067	0.1357
0.0067	0.2662
0.0082	0.2685
0.0045	0.1102
0.003	0.0465
0.0052	0.0225
0.0075	-0.0083
0.006	0.021
0.0052	-0.0181
0.0067	-0.0128
0.0045	0.066
0.0052	0.0772
0.0052	0.0427
0.0052	0.0082
0.0052	0.024
0.0022	0.0082
0.0015	0.0255
0.0022	0.0397
0.0045	-0.0068
0.0037	-0.033
0.003	-0.0361
0.0052	-0.0053
0.0067	-0.015
0.0067	-0.0353
0.0105	-0.0323
0.0097	-0.0181
0.0045	-0.0008
0.0015	0.006
0.0007	0.015
0.0045	0.021
0.0037	0.06
0.003	0.0405
0.0037	-0.0758
0.0022	-0.1628
0.0052	-0.1238
0.0052	-0.0608
0.0045	-0.0113
0.0082	0.063
0.0045	0.1125
0.003	0.174
0.0045	0.2137
0.0052	0.1905
0.0007	0.045
0.003	-0.0623
0.0075	-0.045
0.0045	-0.0436
0.003	-0.0473
0.0067	-0.0728
0.0067	-0.0203
0.003	0.0382
0.0037	-0.0218
0.0067	-0.084
0.0037	-0.0833
0.0045	-0.0278
0.0045	0.0285
0.0067	0.0735
0.0067	0.0337
0.0045	-0.0181
0.006	0.0067
0.0052	-0.0285
0.0045	-0.0323
0.0045	-0.012
0.0067	-0.024
0.0022	-0.0405
0.0007	-0.048
0.0045	-0.0353
0.003	-0.0578
0.0037	-0.039
0.003	-0.0256
0	-0.0398
-0.0015	-0.0975
-0.0008	-0.1478
-0.0015	-0.1418
-0.0015	-0.1575
0.0007	-0.0713
-0.0023	0.0007
0.003	0.0345
0.0052	0.1822
0.0052	0.3892
0.0067	0.447
0.0045	0.2617
0.0067	0.147
0.0097	0.1275
0.012	0.051
0.0127	0.051
0.012	0.012
0.009	-0.0263
0.0067	-0.0511
0.0067	-0.0795
0.0052	-0.0728
0.0045	-0.1185
0.006	-0.129
0.0045	-0.1635
0.0082	-0.168
0.0097	-0.063
0.0082	0.0262
0.0075	0.0397
0.0067	0.006
0.0067	-0.003
0.0052	0.0165
0.0067	0.0345
0.0037	-0.0083
0.0037	-0.0533
0.0022	-0.0563
0.0045	-0.0308
0.009	-0.0113
0.0052	0.0015
0.0082	0.0255
0.0075	0.045
0.0045	0.042
0.0037	0.0435
0.006	0.0225
0.0082	-0.003
0.0045	0.0202
0.0045	0.024
0.0067	0.024
0.0067	-0.0113
0.0052	-0.0548
0.0067	-0.0398
0.0097	-0.0203
0.0105	-0.0195
0.0082	-0.0098
0.009	0.0105
0.0045	0.0097
0.003	-0.0091
0.0045	-0.0218
0.0015	-0.0278
0.003	-0.0248
0.0037	-0.0795
0.0045	-0.1568
0.003	-0.1178
0.003	-0.0256
0.003	0.0097
0.0045	0.0352
0.006	0.0487
0.0045	0.0802
0.0045	0.1725
0.003	0.2205
0.003	0.189
0.0015	0.0397
0.003	-0.0263
0.0067	0.048
0.0052	-0.0443
0.0052	-0.078
0.006	-0.0068
0.0022	0.0315
0.0037	0.1087
0.0067	0.147
0.0022	0.0585
0.0052	-0.0203
0.0037	-0.012
-0.0015	-0.0608
-0.0008	-0.078
0.0015	-0.0511
0.0045	-0.048
0.0037	-0.0278
0.0045	-0.0383
0.0045	-0.063
0.0045	-0.045
0.0045	-0.0143
0.0082	-0.0128
0.009	-0.0008
0.0022	0.0052
0.0045	0.0142
0.0067	0.024
0.0052	-0.0105
0.009	0.0052
0.009	0.0292
0.009	0.0352
0.0067	0.0532
0.0075	0.0015
0.0097	-0.0413
0.0052	-0.0495
0.0067	-0.0691
0.0015	-0.0585
0.0015	-0.0323
0.003	0.0127
0.0015	0.051
0.0045	0.132
0.0045	0.1822
0.0015	0.1267
0.0045	0.0457
0.0082	0.0435
0.009	0.036
0.0045	-0.1058
0.0052	-0.2093
0.0112	-0.1718
0.0082	-0.1583
0.0067	-0.1815
0.0045	-0.1283
0.0045	-0.039
0.0037	0.0442
-0.0008	0.066
0.0022	-0.0128
-0.0008	0.0172
0.0007	0.033
0.0067	-0.0181
0.003	0.0052
0.0037	0.0225
0.003	0.054
0.0015	0.0472
0.0052	0.0547
0.0067	0.1185
0.0052	0.1132
0.0045	0.0442
0.0045	0.039
0.003	0.0187
0.0015	-0.0765
0.0015	-0.105
0.0007	-0.1133
0.0015	-0.1718
0.0015	-0.2011
0.0037	-0.129
0.0045	-0.0361
0.0067	0.078
0.0067	0.2437
0.0045	0.2617
0.006	0.075
0.0105	0.0622
0.0135	0.1642
0.0075	0.0172
0.0067	-0.0075
0.0082	0.0795
0.0082	0.102
0.0082	0.144
0.0037	0.1282
0.006	0.1912
0.0045	0.1072
0.0052	-0.0375
0.0045	-0.0368
0.0015	-0.0525
0.003	-0.0735
0.0045	-0.0825
0.003	-0.0818
0.0015	-0.0953
0.0052	-0.0893
0.006	-0.0848
0.0052	-0.1028
0.009	-0.0945
0.0052	-0.0525
0.0007	-0.0383
0.0045	-0.045
0.003	-0.033
0.003	-0.0323
0.0052	-0.0511
0.003	-0.0645
0.0037	-0.0218
0.003	0.0067
0	0.0255
0.0022	0.0532
0.0037	0.0577
0.0022	0.072
0.0037	0.1027
0.0045	0.1395
0.003	0.0802
0.0037	0.0367
0.0015	0.036
0.0007	-0.015
0.0022	-0.0188
0.0045	-0.0488
0.0052	-0.0638
0.0067	-0.0458
0.0015	-0.0563
0.0015	-0.0585
0.0037	-0.0833
0.006	-0.0653
0.0045	-0.0488
0.0007	-0.054
0.0052	-0.0173
0.0052	0.0292
0.0052	0.0697
0.009	0.12
0.0105	0.126
0.0105	0.051
0.0082	-0.0623
0.0067	-0.078
0.0015	-0.0473
0.0045	-0.0555
0.009	0.0105
0.0052	0
0.0045	-0.0465
0	-0.0113
-0.0008	-0.0555
0	-0.0361
0.0045	-0.0188
0.0082	-0.021
0.0007	0.003
0.0045	-0.0428
0.0082	-0.0218
0.0075	-0.0015
0.0067	0.0022
0.0045	0.03
0.0022	0.0427
0.0037	0.0607
0.0067	0.078
0.0075	0.039
0.0082	-0.0181
0.003	-0.0053
0.0037	-0.0518
0.006	-0.1223
0.0067	-0.0998
0.0082	-0.0413
0.0045	0.0495
0.0037	0.12
0.0045	0.1777
0.0067	0.2925
0.0127	0.372
0.0075	0.2887
0.0052	0.0817
0.0075	-0.0053
0.0067	-0.1381
0.0082	-0.2558
0.0067	-0.2011
0.006	-0.1703
0.0075	-0.0893
0.0082	-0.003
0.009	0.1155
0.009	0.249
0.0067	0.2722
0.0045	0.2707
0.0015	0.126
0.0052	-0.012
0.006	-0.0285
0.003	-0.045
0.006	-0.0075
0.0052	-0.0225
0.0045	-0.0645
0.006	-0.057
0.0052	-0.048
0.0007	-0.0361
0.0015	-0.0488
0.0015	-0.033
-0.0008	-0.0375
0	-0.066
0	-0.0735
0.0052	-0.1058
0.0045	-0.1223
-0.0015	-0.1275
0.003	-0.1073
0.003	-0.084
0.0045	-0.0691
0.0052	-0.042
0.0015	-0.0181
0.0037	0.0052
0.0037	0.0127
0.0052	-0.0023
0.0052	-0.0278
0.0052	-0.042
0.0067	-0.0503
0.006	-0.0443
0.0067	-0.0533
0.006	-0.078
0.0082	-0.0398
0.0067	0.0067
0.0052	0.0202
0.0075	0.0487
0.0067	0.072
0.0075	0.0742
0.0075	0.0562
0.0105	0.0457
0.0067	0.027
0.0075	0.0255
0.009	0.051
0.0045	0.0225
0.0075	-0.0098
0.0037	-0.0008
0.0052	0.0195
0.003	0.042
0	0.0457
0.0037	0.051
0.0015	0.036
0.003	0.0487
0.0075	0.021
0.0052	-0.0135
0.003	0.0322
0.003	0.03
0.0015	0.0195
0.0022	0.0217
0.0015	0.006
0.0015	0.0202
0.0007	0.036
0.0007	0.045
0.0052	0.0292
0.0082	-0.0046
0.0067	-0.0046
0.0015	0.0007
0.006	-0.021
0.009	-0.0338
0.006	-0.0473
0.0067	-0.0218
0.0082	0.063
0.0082	0.0937
0.0052	0.0082
0.0045	-0.0285
0.0045	-0.0225
0.009	-0.0263
0.0052	0.0105
0.0015	-0.027
0.0007	-0.0578
0.0015	-0.0668
0.003	-0.054
0.003	-0.0188
0.0037	-0.063
0.0052	-0.0488
0.006	-0.0053
-0.0015	-0.0023
0.0022	-0.0128
0.0007	0.012
-0.0015	0.0525
0.0015	0.054
0.0045	0.0682
0.009	0.099
0.0067	0.0765
0.0075	0.0232
0.003	0.006
0.0015	-0.0428
0.0045	-0.099
0.003	-0.093
0.0045	-0.0645
0.0052	-0.0518
0.0075	-0.0113
0.0082	0.0382
0.009	0.093
0.0127	0.2205
0.0135	0.2895
0.0082	0.1882
0.0052	0.0315
0.0015	-0.0675
0.0037	-0.0825
0.0082	-0.0623
0.0075	-0.0548
0.0082	-0.0368
0.0075	-0.0683
0.0082	-0.1335
0.0052	-0.18
0.003	-0.165
0.009	-0.0983
0.009	-0.0885
0.0075	-0.0563
0.0067	-0.0188
0.0022	0.063
0.0007	0.1777
0.0007	0.1957
0.0007	0.159
0	0.0015
0.003	-0.0188
0.0052	0.0765
0.0052	0.078
0.003	-0.0015
0.003	-0.0893
0.0045	-0.0308
0.003	-0.0608
0.0052	-0.0893
0.0052	-0.063
0.003	-0.045
0.0037	0.0052
0.0045	-0.0143
0.0067	-0.0091
0.0097	0.0105
0.0037	0.0585
0.0007	0.063
0.003	0.0142
0.0045	-0.0413
0.0067	-0.0563
0.0097	-0.0015
0.009	0.0547
0.012	0.0562
0.0105	0.0217
0.0045	0.0375
0.0045	-0.003
0.0075	0.012
0.0052	0.0397
0.0052	0.006
0.006	0.024
-0.0015	0.012
-0.0008	0.0195
0.0015	0.0022
0.0007	-0.0143
0.0007	-0.0143
-0.0015	-0.0308
0.0045	-0.0128
0.003	-0.006
0.0037	-0.0098
0.0037	0.0007
0.0052	0.0405
0.0067	0.051
0.0052	0.0225
0.009	0.0127
0.0097	0.0045
0.0105	0.0352
0.006	0.051
0.0045	0.0255
0.0022	0.0187
0.0037	0.0097
0.0045	0.0015
0.0052	0.0052
0.0067	0.033
0.0022	0.0277
-0.0015	-0.0091
-0.0015	-0.0285
-0.0008	-0.0361
0.0045	-0.042
0.0007	-0.1335
0.0022	-0.18
0.0045	-0.1455
0.0022	-0.0975
0.0067	0.0067
0.0127	0.0967
0.012	0.099
0.012	0.0052
0.018	0.0697
0.0112	0.1575
0.0045	0.045
0.0082	-0.0668
0.0052	-0.2093
0.0052	-0.2558
0.0082	-0.1838
0.0082	-0.1853
0.0067	-0.114
0.0045	0.0232
0.0015	0.1417
0.003	0.222
0.0075	0.255
0.0052	0.27
0.0022	0.1777
0.0067	0.0735
0.0067	0.024
0.0037	-0.0023
0.0045	0.0007
0.0037	-0.0256
0.003	-0.0361
0.0007	0.003
0.0007	0.0007
0.003	-0.0225
-0.0008	-0.0361
-0.003	-0.0203
-0.0008	-0.024
-0.003	-0.0458
-0.003	-0.0495
0.0052	-0.0878
0.0067	-0.0765
0.003	-0.024
0.003	-0.0203
0.0075	-0.03
0.0082	-0.0023
0.0067	-0.0143
0.009	-0.0368
0.0105	-0.0346
0.0067	-0.0473
0.003	-0.063
0.0067	-0.0585
0.0052	-0.0105
0.0015	0.015
0.0015	0.0232
0.0007	0.066
0.0037	0.1237
0.009	0.1942
0.0157	0.1432
0.012	0.0457
0.0082	0
0.0112	-0.0285
0.0052	0.0075
0.0015	0.0142
0.0052	0.0315
0.0045	0.0967
-0.0015	0.072
0.0015	0.0465
0.0052	0.0277
0.0052	-0.0128
0.0067	-0.0158
0.0045	0.0015
0.0022	-0.012
0	-0.0368
0.003	-0.0278
0.0022	-0.012
0.0022	-0.0353
0.0052	-0.0721
0.0007	-0.0721
0.0045	-0.0346
0.009	0.0517
0.009	0.12
0.0075	0.0607
0.0052	-0.0263
0.0067	-0.0256
0.0052	-0.0263
0.0052	-0.0413
0.0052	-0.03
0.0082	-0.0368
0.006	-0.0278
0.0045	0.0037
0.0075	0.0337
0.0075	0.06
0.0045	0.072
0.003	0.0345
0.0052	-0.0068
0.0075	0.0067
0.0082	0.0532
0.0067	0.0502
0.0037	-0.0353
0.003	-0.0368
0.0045	-0.0338
0.0045	-0.0533
0.003	-0.0285
0.0067	-0.0248
0.0082	0.0015
0.0045	0.0682
0.0045	0.132
0.0052	0.0562
0.0015	-0.0878
0.0022	-0.1223
0.0037	-0.0818
0.0037	-0.0203
0.0015	-0.0053
0.0037	-0.021
0.003	0.0472
-0.0015	0.0975
0.0015	0.0682
0.006	-0.0278
0.006	-0.1088
0.003	-0.0915
0.0022	-0.081
0.003	-0.0473
0.0015	-0.0181
0.0037	-0.0181
0.006	0.018
0.0067	0.0525
0.009	0.12
0.0067	0.1342
0.003	0.0697
0.003	0.0262
0.0052	-0.0585
0.009	-0.0983
0.0097	-0.0653
0.0082	-0.0533
0.0082	-0.0623
0.0052	-0.0878
0.0052	-0.0706
0.0075	-0.0225
0.0052	0.003
0.0082	0.0112
0.006	0.039
0.003	0.057
0.0067	0.0412
0.0052	0.0577
0.0082	0.0802
0.006	0.0832
-0.0008	0.018
-0.0008	-0.1073
0.0022	-0.1605
0.0015	-0.1133
0.0015	-0.042
0.0067	-0.0008
0.0082	0.0495
0.003	0.0975
0.0022	0.1245
0.0022	0.1612
0.0015	0.1882
0.0037	0.099
0.0022	-0.0188
0.0045	-0.0165
0.0037	-0.0218
0.003	-0.0285
0.003	-0.0256
0.0015	-0.0285
0.0052	-0.0315
0.0007	-0.045
0.0022	-0.0165
0.0067	-0.0361
0.0067	-0.0428
0.0082	-0.0428
0.0067	-0.0405
0.0045	-0.0165
0.0052	-0.0353
0.0067	-0.0188
0.0037	-0.0008
0.0045	0.0225
0.0067	0.072
0.0052	0.105
0.0067	0.09
0.0015	0.0255
-0.0015	0.0217
0.0015	0.048
0.0052	0.0022
0.0052	-0.0563
0.009	-0.063
0.009	-0.0053
0.0075	-0.0173
0.0097	-0.0795
0.0067	-0.0975
0.0052	-0.093
0.009	-0.0743
0.0075	-0.0773
0.0045	-0.0735
0.0052	-0.06
0.003	-0.015
0.0052	0.0742
0.0082	0.1192
0.0052	0.0772
0.0052	0.0585
0.0075	0.111
0.0082	0.1635
0.003	0.2812
0.0082	0.2377
0.012	0.09
0.0067	0.0292
0.0045	-0.0165
0.0052	-0.0203
0.0007	-0.0375
0	-0.0413
0.0067	-0.0645
0.0045	-0.1373
0.0045	-0.1605
0.0075	-0.153
0.009	-0.1148
0.0045	-0.0525
0.0022	-0.0165
0.0075	0.0015
0.006	-0.0181
0.0045	0.0255
0.0067	0.0945
0.0007	0.0525
0.0007	-0.015
0.003	-0.0518
0.0015	-0.0563
0.0022	0.0097
-0.0008	0.0375
-0.0008	-0.015
0.0015	0.0015
0.0007	-0.0105
0.0052	-0.0181
0.0052	0.0435
0.0045	0.0592
0.0045	0.042
0.006	-0.0091
0.0075	-0.0706
0.006	-0.1381
0.0052	-0.093
0.0045	-0.0353
0.0037	-0.0158
0.0007	0.0795
0.003	0.1117
0.0067	0.1432
0.0082	0.2145
0.0067	0.2535
0.0082	0.1582
0.012	0.0187
0.009	0.009
0.0112	-0.024
0.012	-0.0668
0.009	-0.06
0.009	-0.0488
0.0105	-0.0346
0.0082	-0.0361
0.0045	-0.0218
0.003	-0.03
0.006	-0.0563
0.0052	-0.0398
0.0045	0.0007
0.0037	-0.0518
0.0045	-0.066
0.0045	-0.0368
0.0052	-0.078
0.003	-0.0195
0.0037	0.0127
0.0045	-0.027
0.0007	-0.06
0.003	-0.0578
0.0015	-0.0436
-0.0015	-0.0413
0.0015	0.0052
0.0015	0.0495
0.003	0.1147
0.006	0.207
0.0022	0.2452
0.0022	0.132
0.003	-0.0105
0.0007	-0.0465
0.003	-0.0735
0.0022	-0.0683
0.0007	-0.0683
0.003	-0.0653
0.0052	-0.0181
0.0075	0.0262
0.0067	-0.0181
0.0067	-0.0878
0.009	-0.0885
0.0067	-0.0608
0.003	-0.0256
0.0037	-0.0158
0.0052	-0.03
0.0052	-0.0608
0.0045	-0.0615
0.0082	-0.0668
0.0045	-0.027
0.0045	0.0165
0.003	0.0075
0.0007	0.066
0.0082	0.1237
0.0082	0.2002
0.0045	0.1762
0.0082	0.0547
0.0105	-0.0278
0.0082	-0.0795
0	-0.039
0.0037	-0.045
0.0075	0.0045
0.0045	0.0367
0.0067	0.0472
0.009	0.129
0.012	0.138
0.0067	0.1335
0.0045	0.0202
0.0082	-0.0181
0.0067	0.0157
0.0022	-0.0533
0.0022	-0.0645
0.0015	-0.0758
0.0022	-0.0413
0.003	0.0045
0.003	-0.0068
0.0037	0.015
0.0037	0.0165
0.0075	-0.0218
0.0112	-0.0465
0.0105	-0.039
0.0052	0.0142
0.0015	0.0247
0.0075	-0.003
0.0082	-0.012
0.0045	-0.03
0.0045	-0.0315
0.0022	-0.0728
0.0075	-0.0721
0.0045	-0.027
0.006	-0.0338
0.0082	-0.0023
0.0045	0.0067
0.0037	-0.0008
0.003	-0.0135
0.0052	-0.0188
0.0045	-0.0218
0.0052	-0.0068
0.0067	0.0255
0.009	0.0435
0.0052	0.0555
0.0037	0.0322
0.0067	0.0217
0.0015	0.0322
0.0052	0.0157
0.0052	0.0067
0.0037	-0.0105
0.0015	-0.0668
0	-0.1103
0.0015	-0.0938
0.0007	-0.1028
-0.003	-0.183
-0.003	-0.147
-0.0008	-0.0256
0.003	0.0585
0.0067	0.1297
0.0075	0.2085
0.0045	0.2842
-0.0008	0.2032
0.0015	0.2002
0.0045	0.1875
0.0045	0.0045
0.0067	-0.039
0.003	-0.0878
-0.003	-0.1013
-0.0015	-0.081
0.003	-0.1133
0.0022	-0.0795
0.003	-0.093
0.003	-0.0608
0.0022	-0.0518
0.0037	-0.0398
0.0015	-0.006
0.0037	-0.0181
0.0052	-0.0068
0.0045	-0.0068
0.0067	0.0022
0.0067	0
0.006	0.012
0.003	0.0262
0.0052	0.015
0.0082	0.0465
0.0067	0.1027
0.009	0.1282
0.0112	0.1515
0.009	0.1485
0.0082	0.045
0.0142	-0.0443
0.0127	-0.0158
0.015	0.0502
0.0187	0.0862
0.012	0.0487
0.012	0.0015
0.009	0.0015
0.0052	-0.0225
0.0067	-0.0105
0.0045	-0.0091
0.0022	-0.0593
0.0052	-0.0458
0.0067	-0.0585
0.0082	-0.0361
0.0045	-0.0218
0.0022	-0.027
0.0015	-0.003
-0.003	0.0187
0	0.051
0.0007	0.015
0.003	-0.0263
0.0067	-0.045
0.0097	-0.0533
0.0082	-0.045
0.0052	-0.0338
0.0052	-0.003
0.0045	-0.0188
0.0022	-0.0375
0.0022	0.0022
0	-0.0113
-0.0008	-0.0525
0.0007	-0.0225
-0.003	0.0082
-0.0008	0.0075
-0.006	0.036
-0.0046	0.051
0.0037	0.06
0.0007	0.0427
0.0045	-0.0091
0.0022	-0.0181
-0.0008	0.045
0.0022	0.0637
0.0052	0.0472
0.0105	0.1057
0.0097	0.1642
0.0052	0.1297
0.0067	-0.0375
0.0082	-0.1185
0.0045	-0.114
0.0075	-0.108
0.009	-0.039
0.0052	-0.0465
0.0045	-0.0683
0.0037	-0.045
0.0015	0.0007
0	-0.0053
0.0022	-0.1118
0	-0.1463
0.0037	-0.09
0.006	-0.0585
0.0052	-0.0181
0.0052	0.0517
0.0052	0.0765
0.009	0.072
0.0082	0.1042
0.006	0.1357
0.0015	0.0607
0.0015	-0.0068
0.003	0.0007
0.0015	-0.0285
0.0052	-0.039
0.009	-0.033
0.009	-0.0323
0.0082	-0.0413
0.006	-0.0795
0.0097	-0.099
0.0082	-0.0653
0.0075	-0.066
0.0075	-0.0218
0.0045	0.0727
0.009	0.1305
0.0097	0.1702
0.0082	0.1882
0.009	0.1335
0.006	0.009
0.0067	0.0045
0.0067	0.0135
0.0082	-0.0233
0.0105	-0.0135
0.0052	0.0075
0.0015	0.0007
0.0075	-0.0188
0.0105	-0.0188
0.0082	-0.0361
0.0082	-0.0188
0.0052	-0.0008
0.0067	-0.021
0.0067	-0.0091
0.0052	-0.0165
0.0052	-0.0315
0.0022	-0.0225
0.0067	-0.0135
0.0037	-0.0053
-0.0008	-0.0233
0.0015	-0.0323
0.003	0.003
0.0045	0.0105
0.0022	-0.0015
-0.0015	-0.0188
-0.0053	-0.0473
-0.0038	-0.0728
0.003	-0.0803
0.0052	-0.0848
0.0052	-0.1335
0.0045	-0.0721
0.0037	0.0577
0.0067	0.0397
0.009	0.0127
0.0082	0.1507
0.0045	0.2175
0.0037	0.1762
0.003	0.2362
0.0022	0.2685
0.0022	0.1545
0.0007	0.0502
0.003	0.0487
0.0052	-0.006
0.006	-0.0233
0.0037	-0.057
0.0007	-0.219
0.003	-0.2663
0.0045	-0.2528
0.0022	-0.186
0.0045	-0.105
0.009	-0.0361
0.009	0.036
0.0082	0.0907
0.0075	0.2092
0.006	0.222
0.003	0.192
0.003	0.2055
0.003	0.1395
0.0022	0.027
0.0022	-0.0285
0.0015	-0.0346
0.0007	-0.0533
0.0022	-0.0758
0.0015	-0.1006
0.003	-0.093
0.0067	-0.0945
0.006	-0.0818
0.0075	-0.0765
0.009	-0.0953
0.009	-0.1058
0.012	-0.093
0.0082	-0.0585
0.0082	-0.0668
0.0105	-0.0503
0.009	-0.0473
0.0105	-0.0533
0.0097	-0.0143
0.0075	0.0195
0.0052	0.0307
0.0045	0.0135
0.003	0.0375
0.003	0.039
0.009	0.0397
0.0067	0.045
0.0052	0.0427
0.0067	0.0607
0.0045	0.0585
0.0037	0.0757
0.0075	0.0705
0.0067	0.0412
0.003	-0.0181
0.0022	-0.081
0.003	-0.0195
0.0022	0.0442
0.003	0.024
0.0015	-0.021
0.0015	-0.0353
0.0007	0.0127
0.0037	0.093
0.0052	0.0862
0.006	-0.0113
0.0067	0.0045
0.009	0.0975
0.0127	0.186
0.0105	0.1702
0.0067	0.042
0.0052	-0.0091
0.0067	-0.012
0.006	0.0225
0.009	-0.0015
0.0105	-0.0293
0.0045	-0.0053
0.0067	-0.0495
0.0082	-0.0585
0.0037	-0.0645
0.0045	-0.0585
0.0067	-0.0533
0.0082	-0.0436
0.0015	0.0015
0.0037	0.0007
0.0052	-0.012
0.0082	-0.0046
0.0082	-0.0083
0.0007	-0.0285
0.003	0.0517
0.0007	0.1102
0.003	0.0285
0.006	-0.0413
0.0082	-0.0495
0.009	-0.0113
0	0.0037
-0.0023	-0.0068
0.0007	0
-0.0008	-0.0263
-0.0008	-0.0361
0.0015	-0.0353
0.0015	-0.048
0.0037	-0.0878
0.003	-0.186
0.0022	-0.1988
0	-0.1148
-0.0038	-0.03
-0.0008	0.0345
0.0015	0.0127
0.0015	0
-0.0008	0.0337
0.0015	0.1155
0.0015	0.2085
0.006	0.144
0.009	0.0802
0.0045	0.0637
0.0015	0.0045
0.003	-0.0195
0.006	-0.0135
0.0052	-0.0098
0.0052	0.0052
0.0015	-0.015
0.0007	-0.0105
0.0022	0.0127
0.0052	-0.0015
0.0052	0.0022
0.0037	-0.0046
0.0105	0.0022
0.0052	0.0195
0.0037	0.0232
0.0097	0.0217
0.009	-0.0083
0.012	-0.0143
0.0097	-0.0113
0.009	-0.0218
0.0082	-0.0181
0.0045	-0.0046
0.006	0.0202
0.006	0.0165
0.0045	-0.0413
0.0097	-0.0795
0.0135	-0.1223
0.0105	-0.1103
0.0082	-0.0256
0.0052	0.0052
0.0045	0.0075
0.0045	0.0495
0.003	0.0802
0.0015	0.0847
0.003	0.0802
0.0015	-0.0008
0	-0.0135
0.0007	0.006
0.003	-0.0346
0.003	-0.0315
0.0037	-0.0405
0.0052	-0.0458
0.003	-0.0833
-0.0008	-0.0818
0.0015	-0.0488
0.0037	0.0135
0.0037	0.1102
0.0007	0.0892
-0.0023	0.1117
0.003	0.201
0.0105	0.2257
0.009	0.2055
0.0067	0.1725
0.0067	0.0885
0.0037	0.024
0.0067	-0.0105
0.0075	-0.0585
0.009	-0.0863
0.0105	-0.1515
0.0097	-0.096
0.006	-0.0413
0.0037	-0.1028
0.0082	-0.0915
0.0052	-0.0706
0.003	-0.042
0.0052	-0.0353
0.003	-0.0458
0.0045	-0.012
0.006	-0.0023
0.0022	0.015
0.0022	-0.0015
0.0045	-0.0091
0.006	0.0195
0.0052	-0.0113
0.0052	-0.0218
0.0082	-0.0218
0.0082	-0.0218
0.0052	0.0105
0.0015	0.0277
0.0045	0.0412
0.0082	0.102
0.009	0.1852
0.006	0.2527
-0.0008	0.2017
0.003	0.0667
0.0067	0.0045
0.0052	-0.0158
0.0052	-0.0203
0.003	-0.0008
0.0007	-0.0128
0.0015	-0.057
0.006	-0.0691
0.0045	-0.0878
0.0045	-0.1343
0.009	-0.2168
0.006	-0.2753
0.0007	-0.1995
0.0052	-0.1275
0.0052	-0.1058
0.003	-0.084
0.003	-0.0128
0.0052	0.0645
0.0097	0.1282
0.0075	0.231
0.0045	0.1785
0.0067	0.0765
0.009	0.141
0.0082	0.1455
0.0082	0.0337
0.0067	-0.003
0.0067	-0.0338
0.0105	-0.084
0.0075	-0.1335
0.003	-0.216
0.0052	-0.2625
0.0075	-0.2183
0.0045	-0.1418
0.003	-0.0158
0.003	0.126
0.0037	0.2032
0.0067	0.2812
0.0067	0.3825
0.0045	0.4185
-0.0023	0.2002
0.003	-0.0683
0.0075	-0.0585
0.0045	-0.0488
0	-0.0878
0.0015	-0.0923
0.003	-0.0878
-0.0015	-0.0188
0.0007	-0.0353
0.003	-0.045
0.0037	-0.0525
0.0045	-0.0585
0.006	-0.0338
0.006	-0.0361
0.003	-0.0263
0.0052	-0.0143
0.0045	-0.0068
0.0007	0.0015
-0.0015	0.0135
-0.0015	0.0127
-0.0008	0.033
0.0015	0.0315
0.0045	0.0015
0.0015	0.0127
0.0007	-0.0046
0.0052	-0.0173
0.0075	-0.0278
0.0067	-0.057
0.0112	-0.0863
0.0097	-0.1215
0.0097	-0.12
0.0105	-0.0953
0.0052	-0.0361
0.0045	0.039
0.0097	0.1005
0.009	0.1365
0.0052	0.159
0.0075	0.1912
0.0097	0.051
0.009	-0.0465
0.0097	-0.012
0.0075	-0.0203
0.006	0.0022
0.0082	-0.0165
0.0067	-0.0068
0.003	0.0225
0.0007	0.0015
-0.0008	-0.015
0.0007	-0.015
0.003	-0.0181
0	0.0187
-0.0008	0.0855
0	0.0952
0.0037	0.1005
0.0067	0.0405
0.0022	-0.0128
0.0037	-0.0105
0.0067	-0.0315
0.0067	-0.0675
0.0082	-0.0923
0.0082	-0.0713
0.0082	-0.0608
0.0045	-0.123
0.006	-0.1988
0.0052	-0.1283
0.006	-0.0488
0.003	0.0052
0.006	0.0802
0.009	0.09
0.003	0.1575
0.0022	0.2377
0.0045	0.2212
0.0082	0.0607
0.0067	-0.0353
0.0067	-0.0443
0.0075	-0.1381
0.0015	-0.1575
0.0022	-0.1245
0.003	-0.084
0	-0.0473
-0.0008	-0.0105
-0.0015	0.0592
0.0015	0.1567
0.0067	0.294
0.0067	0.276
0.003	0.0585
0.0022	-0.03
0.006	-0.0098
0.0052	-0.057
0.003	-0.045
0.0007	-0.024
0.0015	-0.006
0.0015	-0.0413
0.0015	-0.165
0.0015	-0.1718
0.0022	-0.1215
0.0007	-0.1208
0.0022	-0.0683
0.0067	-0.0083
0.003	0.048
0.0045	0.2047
0.0052	0.3322
0.0022	0.2197
0.0067	-0.0225
0.0082	-0.0668
0.0067	-0.045
0.0067	-0.03
0.0082	0.0052
0.0052	-0.0233
0.0045	0.03
0.009	0.0487
0.0105	-0.006
0.0112	-0.0585
0.0097	-0.0398
0.0082	-0.0135
0.009	-0.0375
0.009	-0.0361
0.0105	-0.0361
0.0105	-0.03
0.0105	-0.0248
0.012	-0.003
0.009	-0.0046
0.009	-0.0113
0.003	0.003
0.0037	0.0457
0.0052	0.0262
0.003	-0.045
0.0052	-0.0525
0.0045	-0.0735
0.0045	-0.0863
0.0022	-0.0728
0.0022	-0.024
0.0052	0.0135
0.0105	0.0502
0.0112	0.0652
0.0052	0.0142
0.0052	-0.0053
0.006	-0.0323
0.0045	-0.0135
0.0045	0.0412
0.0007	0.0502
0.003	0.0697
0.0045	0.09
0.0015	0.0982
0.0045	0.1185
0.0045	0.111
0.0015	0.0405
0.0022	0.0142
0.0045	-0.0046
0.0015	-0.0083
0	-0.012
0.0015	-0.0308
0.0045	-0.063
0.0045	-0.1125
0.003	-0.0758
0.0052	-0.0878
0.0105	-0.1396
0.0067	-0.1275
0.003	-0.0158
0.0045	0.0945
0.009	0.1957
0.0037	0.2332
0.003	0.1267
0.0037	0.1282
-0.0015	0.1567
-0.0008	0.1515
0.0015	0.0457
0.003	-0.0728
-0.0023	-0.0548
-0.003	-0.165
0.0052	-0.2205
0.006	-0.18
0.0022	-0.1388
0.0052	-0.0803
0.0082	-0.0398
0.0045	0.0187
0.006	0.0405
0.0112	0.0742
0.0105	0.0645
0.009	-0.0015
0.0067	-0.0428
0.0052	-0.0181
0.003	0.0165
0.0045	0
0.0067	-0.0083
0.0045	0.003
0.0045	0.0052
0.0045	0.0255
0.0052	0.0397
0.0045	0.0105
0.0045	-0.0218
0.0082	-0.0203
0.0067	-0.0023
0.0075	0.0255
0.0082	0.0975
0	0.033
-0.0008	-0.006
0.003	0.072
0.003	0.0322
0.0075	-0.0278
0.0052	-0.0818
0.0022	-0.045
0.0022	-0.0323
0.0045	-0.0023
0.003	0.042
-0.0046	-0.0638
-0.0053	-0.0795
-0.0015	-0.0968
0.0007	-0.1358
0.0037	-0.186
0.0045	-0.2483
0.003	-0.207
0.0052	-0.159
0.0075	-0.0878
0.0082	-0.024
0.009	0.0577
0.0052	0.147
0.0052	0.2595
0.0075	0.3765
0.0082	0.3412
0.0075	0.144
0.0067	0.0607
0.0082	0.0645
0.0075	-0.0075
0.0045	0.0397
0.0037	0.0607
0.0082	0.0307
0.009	-0.012
0.0097	-0.0113
0.0082	-0.0098
0.0067	-0.078
0.0067	-0.057
0.006	-0.06
0.0075	-0.0233
0.0067	0.036
0.0082	0.0037
0.0127	-0.0128
0.0112	0.057
0.009	0.0855
0.0082	-0.003
0.0082	-0.006
0.0105	-0.0353
0.0105	-0.0158
0.0052	0.1192
0.0015	0.156
0.0015	0.147
-0.0015	0.0232
0.0045	-0.054
0.0075	0.0435
-0.0008	0.114
0.0007	0.1492
0.0015	0.1305
0.003	0.0817
0.0037	0.0585
0.0037	-0.027
0.0007	-0.0593
-0.0008	-0.054
-0.0008	-0.1021
-0.0008	-0.0998
0.003	-0.1298
0.003	-0.1365
0.003	-0.1163
-0.0008	-0.1515
0.0007	-0.2033
0.003	-0.2026
0.003	-0.1373
0.0045	-0.0893
0.0052	-0.0525
0.0075	-0.0488
0.0045	0.0037
0.009	0.102
0.012	0.1567
0.0105	0.1035
0.0105	-0.0046
0.012	-0.0285
0.0127	-0.0413
0.0105	-0.0256
0.0097	0.0082
0.0082	-0.0285
0.0112	-0.0548
0.0075	-0.021
0.003	-0.0128
0.003	-0.03
0.003	0.0007
0.0045	0.0367
0.0052	0.0442
0.0045	0.0285
0.0037	0.0525
0.0022	0.0675
0.0015	0.027
0.0022	0.024
-0.0008	0.0165
0.0052	-0.0038
0.0075	-0.0188
0.006	-0.0233
0.0067	-0.042
0.0067	-0.0285
0.006	0.045
0.0007	0.066
0.0052	0.0757
0.006	0.0562
0.0067	-0.033
0.0067	-0.0623
0.0045	-0.0015
0.0015	0.0105
0.003	-0.0098
0.0067	0.009
0.0082	0.0652
0.012	0.1762
0.0097	0.1492
0.003	-0.0143
0.003	-0.0511
0.006	-0.0458
0.0067	-0.0915
0.0007	-0.0938
-0.0023	-0.0375
0	-0.006
0.0007	0.0877
0.0015	0.2542
0	0.2497
-0.003	0.0525
0.0015	-0.0975
0.0022	-0.0706
0.0022	-0.0803
0.0015	-0.1215
0	-0.1388
0.003	-0.15
0.0045	-0.147
0.0052	-0.114
0.0052	-0.012
0.0015	0.0667
0.003	0.1627
0.0052	0.2355
0.009	0.279
0.0067	0.1897
0.0045	0.066
0.0082	0.0112
0.006	-0.0375
0.0015	-0.0068
0.0045	-0.0091
0.0105	-0.0046
0.0097	-0.015
0.0067	-0.0173
0.0022	0.018
0.0022	0.003
-0.0008	-0.0818
-0.0023	-0.186
-0.0008	-0.198
-0.0015	-0.2018
0.0015	-0.1665
0.0015	-0.0773
0.0052	-0.0038
0.012	0.1455
0.0187	0.378
0.0097	0.3322
0.0045	-0.0645
0.0067	-0.1583
0.0067	-0.1373
0.0082	-0.1523
0.0075	-0.0436
0.0105	-0.0181
0.012	0.1642
0.0067	0.276
0.0052	0.2302
0.0045	0.0975
0.0052	-0.0706
0.0075	-0.0691
0.0022	-0.0706
0.0015	-0.0856
0.0082	-0.0765
0.0075	-0.0728
0.0067	-0.0645
0.003	-0.0398
0.0015	-0.03
0.003	-0.0256
0.0015	-0.0525
0.0007	-0.0706
0.0007	-0.0323
0.0052	-0.0533
0.0052	-0.0443
0.0015	-0.0285
0.0015	-0.0405
0.0015	-0.0203
0.0052	-0.0188
0.0045	-0.0256
0.003	0.003
0.0037	0.0397
0.0022	0.0322
0.0022	-0.0135
0.0052	-0.0308
0.0052	0.0067
0.0052	0.0352
0.0082	0.0562
0.0075	0.0525
0.0052	0.057
0.0052	0.0832
0.0082	0.0712
0.0052	0.0345
0.0075	0.0322
0.0097	0.0915
0.0052	0.0892
0.0082	0.0967
0.009	0.081
0.0112	-0.039
0.0105	-0.0458
-0.0008	-0.096
0.0022	-0.2663
0.0015	-0.3863
0.003	-0.4973
0.0067	-0.4253
0.0022	-0.1973
0.006	-0.0346
0.0007	0.084
0.0015	0.3195
0.0067	0.5797
0.0082	0.6277
0.0142	0.444
0.0142	0.1852
0.0105	0.0937
0.0052	0.0577
0.009	-0.1133
0.0067	-0.1575
0.003	-0.0721
0.0045	-0.039
0.003	0.0315
0.0007	0.0135
0.003	-0.0323
0.0037	-0.0293
0.0007	-0.0225
-0.0008	-0.0181
0.0022	-0.0083
0.0075	-0.0068
0.0052	-0.0218
0.0037	0.012
0.0015	0.003
0.0022	-0.006
0.0007	-0.0263
0.003	-0.0278
0.0037	-0.0195
0.0007	-0.0361
0.003	0.0022
0.0022	-0.0195
0.0052	-0.0368
0.003	-0.0098
0.0015	-0.0008
0.003	0.018
-0.0008	0.03
0.0015	0.0337
0.0037	0.0007
0.003	-0.0256
0.0015	-0.0338
0.0037	-0.0173
0.0022	-0.0068
0.003	-0.0225
0.0007	-0.0375
0.0015	-0.045
0.006	-0.0165
0.003	-0.015
0.0037	-0.0068
0.0037	0.0397
0.0045	0.0435
0.0075	0.0007
0.009	-0.0038
0.009	0.0037
0.0097	-0.0143
0.009	0.0037
0.0067	-0.0053
0.0075	-0.0046
0.006	0.0247
0.006	0.0427
0.0045	0.0532
0.0097	0.018
0.015	0.0015
0.006	-0.027
0.009	-0.0645
0.0127	-0.0315
0.0082	-0.012
0.0082	0.0427
0.0067	0.0427
0.0052	-0.0068
0.0075	0.0285
0.006	0.009
0.0067	0.006
0.003	0.006
0.0037	-0.0518
0.003	-0.0998
0.0007	-0.1088
0.003	-0.033
0.003	0.0142
0.006	0.003
0.009	0.036
0.0105	0.0832
0.012	0.138
0.0105	0.0765
0.0067	-0.0758
0.0067	-0.096
0.0052	-0.084
0.003	-0.0263
-0.0008	0.051
0.0015	0.06
0.0067	0.105
0.0037	0.0217
0.0015	-0.207
0.0045	-0.3413
0.0082	-0.3053
0.0045	-0.1943
0.003	-0.0503
-0.0015	0.0607
-0.0023	0.1717
0.003	0.297
0.0037	0.4687
0.003	0.5152
0.0015	0.3607
0.0082	0.2167
0.0097	0.1027
0.0067	0.0495
0.0097	-0.0473
0.0082	-0.063
0.0052	-0.0458
0.0052	-0.0675
0.003	-0.045
0.003	-0.0533
0.0037	-0.057
0.0045	-0.1013
0.006	-0.1028
0.0045	-0.0915
0.0052	-0.1185
0.0052	-0.1178
0.0052	-0.0975
0.003	-0.084
0.003	-0.0833
0.0067	-0.048
0.0052	-0.0263
0.0082	-0.0436
0.0052	-0.024
0.003	0.0015
0.0045	-0.0091
0.006	-0.0008
0.0022	-0.0195
0.0045	-0.0158
0.0037	0.0007
0.0045	-0.0143
0.0037	-0.0046
0.0022	-0.0203
0.0037	-0.003
0.0015	0.0157
0.0007	0.0127
0.0007	0.0135
0.0007	0.0082
0.0037	0.021
0.0037	0.003
0.006	-0.0195
0.0067	-0.0293
0.003	0.009
0.0045	0.0322
0.0052	0.06
0.0015	0.0457
0.006	-0.0195
0.009	-0.0398
0.012	-0.003
0.012	0.159
0.003	0.0945
0.0007	-0.0256
0.0015	0.0202
0.0022	0.0052
0.0052	0.0877
0.0037	0.1717
0.0052	0.1935
-0.0008	0.078
-0.0038	-0.0128
-0.003	-0.0128
0	-0.1508
0.0052	-0.2258
0.0067	-0.1898
0.0105	-0.0758
0.012	-0.0263
0.0052	0
0.006	0.0892
0.0127	0.1177
0.0082	0.1597
0.0075	0.0862
0.003	-0.0473
0.0007	-0.0893
0.0082	-0.1133
0.0052	-0.1095
0.0127	-0.081
0.0142	-0.039
0.009	0.0007
0.0112	0.0337
0.0052	0.069
0.009	0.1192
0.012	0.0825
0.0067	0.0165
0.0082	0.0562
0.0067	0.0735
0.003	0.0352
0	0.0015
-0.0008	-0.0075
0.0007	-0.015
-0.0015	-0.042
-0.0015	-0.0518
-0.0015	-0.0495
-0.0008	-0.066
0.0015	-0.0563
-0.0008	-0.0068
0.0007	-0.012
0	-0.0181
0.0007	-0.0158
0.003	-0.0098
0.0015	0.0165
0.0045	0.0037
0.0045	-0.084
0.0037	-0.1485
0.006	-0.1381
0.0067	-0.1343
0.009	-0.105
0.0082	-0.0375
0.0037	-0.0233
0.0067	0.0495
0.003	0.2985
0.0022	0.3367
0.0015	0.1455
0.0007	0.1162
0.0015	0.111
0.0015	0.0577
0.0022	0.0795
0.0067	0.0855
0.0067	0.0585
0.0045	-0.0225
0.009	-0.0758
0.0052	-0.0458
0.0015	-0.0675
0.006	-0.0683
0.0075	-0.0533
0.0082	-0.0698
0.0075	-0.0893
0.0045	-0.1223
0.003	-0.0473
0.0045	-0.0053
0.003	-0.0361
0.0022	-0.0518
0.0075	-0.0458
0.0082	0.0082
0.0082	0.1215
0.0082	0.1717
0.0052	0.0517
0.0105	0.0277
0.0075	0.0285
0.0067	-0.0143
0.0112	-0.0098
0.0082	-0.0383
0.009	-0.0361
0.0075	-0.0323
0.006	-0.0128
0.0075	0.024
0.0045	0.0285
0.0052	-0.0008
0.0045	-0.0436
0.0045	-0.0668
0.0075	-0.0443
0.0045	0.003
0.0052	0.018
0.0052	0.0157
0.0045	-0.021
0.003	-0.03
0	0.018
0.0015	0.0337
0.0045	0.0495
0.0052	0.06
-0.0008	0.0562
-0.0008	0.0592
0.0045	0.0262
0.0037	-0.0968
0.003	-0.1808
0.003	-0.1568
0.0007	-0.0638
-0.0023	0.1042
0	0.186
0.0022	0.1995
-0.0015	0.2055
-0.0015	0.1665
0.0045	-0.0083
0.0075	-0.1665
0.0052	-0.1118
0.003	-0.0728
0.0037	-0.0968
0.0052	-0.0848
0.0052	-0.0495
0.0037	-0.012
0.0052	-0.0046
0.0045	0.015
0.0052	0.0337
0.009	0.045
0.0127	0.0052
0.009	-0.0225
0.0052	-0.0225
0.006	-0.0143
0.0015	0.006
0.0052	-0.0263
0.0067	-0.0113
0.0097	0.0495
0.0105	0.102
0.0052	0.0742
0.0067	0.0172
0.0037	0.03
0.0045	0.0427
0.0037	0.0877
0.0015	0.0757
0.0037	0.0397
0.0022	0.0142
0.0067	-0.063
0.0082	-0.0728
0.0082	-0.0436
0.0067	-0.0368
0.0075	-0.039
0.0097	-0.0743
0.009	-0.0938
0.0067	-0.048
0.003	-0.0548
0.0045	-0.0765
0.0067	-0.066
0.0052	-0.0533
0.0082	-0.0165
0.009	0.0052
0.0082	0.0435
0.0105	0.1222
0.0165	0.2587
0.0165	0.2557
0.0082	0.174
0.0037	0.0832
0.0022	0.0082
-0.0008	0.0187
0.0015	-0.0203
0.0022	-0.0361
0.0037	-0.0105
0.003	0.024
0.003	0.0052
0.0052	-0.0361
0.0067	0.018
0.0067	-0.0233
0.0037	-0.0675
0.0045	-0.057
0.003	-0.0833
0.0045	-0.1095
0.0067	-0.1283
0.0015	-0.0735
0.0045	-0.0375
0.0045	-0.0188
0.0022	0.0045
0.0015	-0.0068
0	-0.0091
0.0022	-0.003
0.0037	0.009
0.0022	0.0082
0.0052	0.0247
0.0037	0.0262
0.003	0.0082
0.0045	-0.006
0.0037	-0.0218
0.0015	-0.03
0.003	-0.0256
0.0022	0.0067
0.0015	-0.0233
0.0067	-0.042
0.0015	-0.0285
0.0007	-0.015
0.0045	0.0187
0.0052	0.009
0.0075	0.042
0.003	0.099
0.006	0.117
0.006	0.1462
0.0052	0.0742
0.0082	-0.0548
0.006	-0.1448
0.0067	-0.225
0.006	-0.192
0.0067	-0.1613
0.003	-0.126
0.0052	-0.057
0.0067	0.0202
0.003	0.1312
0.0045	0.2265
0.0015	0.2445
0.003	0.153
0.0022	0.0967
0.0037	-0.0128
0.0052	-0.1238
0.0015	-0.0915
0.0015	-0.0863
0.0037	0.009
0.0075	0.1252
0.0045	0.126
0.0045	0.1987
0.0052	0.2407
0.003	0.1477
0.0045	-0.0233
0.0045	-0.0368
0.0082	-0.015
0.0075	-0.0533
0.0067	-0.027
0.006	-0.078
0.0067	-0.0998
0.0112	-0.0975
0.0067	-0.0825
0.0067	-0.057
0.0052	-0.0691
0.006	-0.0818
0.0045	-0.1065
0.0015	-0.09
0.0045	-0.063
0.0045	-0.0128
0.0022	0.015
0.003	0.0495
0.009	0.1395
0.0097	0.228
0.0052	0.171
0.009	0.0285
0.0112	0.0525
0.0097	0.0165
0.009	-0.0638
0.009	-0.0803
0.009	-0.0721
0.0082	0.0262
0.0052	0.0525
0.0007	0.024
0.0052	0
0.0045	-0.0278
0.0015	-0.0465
0.0015	-0.039
0.0015	-0.0398
0.0022	-0.0361
0.0052	0.006
0.0067	0.048
0.0037	0.0367
0.0045	0.0187
0	0.0202
0	-0.0053
0.003	0.009
-0.0015	-0.0015
0.0007	0.0172
0.0045	-0.0038
0.0052	-0.0803
0.003	-0.0181
-0.003	0.0232
-0.0053	0.0472
-0.003	0.0735
0.003	0.0622
0.0007	0.0352
0.0045	-0.0083
0.009	-0.0256
0.0037	-0.0375
0.003	-0.0436
0.003	-0.0413
0.0067	-0.0285
0.0052	-0.03
0.006	-0.066
0.0052	-0.1823
0.003	-0.2265
0.0045	-0.1411
0.0045	-0.096
0.0067	-0.0225
0.0075	0.078
0.006	0.159
0.0082	0.2257
0.0067	0.3022
0.0067	0.2842
0.009	0.099
0.009	0.0217
0.0097	0.048
0.009	0.0322
0.0082	0.0645
0.0082	0.0562
0.009	0.0187
0.006	-0.039
0.0015	-0.123
0.0052	-0.1275
0.0075	-0.066
0.003	-0.0315
0.0045	-0.0623
0.0045	-0.12
0.0007	-0.1523
0.0007	-0.1193
0.003	-0.0968
0.0067	-0.126
0.009	-0.1358
0.0067	-0.0683
0.0052	0.0765
0.0015	0.2377
-0.0023	0.3127
0.003	0.1327
0.012	0.0337
0.0187	0.2235
0.009	0.2955
-0.0023	0.0202
0.003	-0.1553
0.0007	-0.0728
-0.0008	-0.0863
-0.0015	-0.0795
-0.0008	-0.0938
0.0015	-0.0653
-0.0015	-0.0413
0.0037	-0.084
0.0007	-0.0585
0.003	-0.0968
0.0052	-0.0653
0.006	0.0082
0.0045	0.015
0	-0.0361
0.0015	-0.06
0.0015	-0.057
0.0045	-0.039
0.0045	0.0045
0.0052	-0.0091
0.0067	0.0187
0.006	0.0487
0.0067	0.111
0.0052	0.1762
0.009	0.12
0.0067	0.0285
0.0045	-0.0091
0.0075	-0.0256
0.0052	-0.0158
0.0037	-0.0053
0.0052	-0.0256
0.0067	-0.0083
0.006	-0.0135
0.0045	0.0037
0.0037	0.0045
0.0015	-0.0225
0.0045	-0.012
0.009	-0.0825
0.0067	-0.1853
0.003	-0.2123
0.006	-0.1575
0.012	-0.0953
0.0067	-0.03
0.0037	0.036
0.0052	0.1087
0.0097	0.2865
0.009	0.5317
-0.0008	0.525
0.0015	0.1957
0.0142	0.0007
0.018	0.0472
0.018	0.0487
0.018	-0.0315
0.009	-0.1185
0.003	-0.1193
0.0022	-0.1118
0.0015	-0.1163
0.003	-0.0803
0.0037	-0.0458
0.0015	-0.0203
0.003	-0.0315
-0.0008	-0.0218
-0.003	-0.0113
0.0007	-0.015
-0.0008	0
-0.0008	0.0037
0.0007	0.0187
0.0015	0.0165
0.0015	0.0105
0.0007	0.0135
0.0037	-0.0015
0.003	-0.0338
0.0067	-0.0645
0.006	-0.0668
0.0022	-0.0158
0.0052	0.0202
0.0075	0.0052
0.0097	-0.006
0.009	-0.0548
0.009	-0.0795
0.0105	-0.0698
0.0075	-0.0698
0.0112	-0.0908
0.0105	-0.1021
0.006	-0.0465
0.0052	-0.0083
0.0045	-0.0165
0.0052	-0.0046
0.0045	0.0337
0.0022	0.0352
0	0.009
0.0015	-0.006
0.0067	-0.0143
0.0045	-0.0256
0.0015	0.0067
0.0052	0.0285
0.0067	-0.012
0.0067	0.033
0.0067	0.0772
0.0037	0.0667
0.0037	0.0757
0.0067	0.1027
0.0067	0.1222
0.0082	0.1125
0.0067	0.0967
0.0052	0.0277
0.0052	-0.0165
0.003	-0.0623
0.0015	-0.1718
0.0045	-0.2205
0.0067	-0.135
0.0037	0.0427
0.0022	0.111
0.0052	0.1012
0.0105	0.1102
0.0045	0.1702
0	0.2512
0.0067	0.2265
0.006	0.0675
0.0045	-0.03
0.003	0.0067
0.0052	0.0457
0.0075	0.0795
0.0045	-0.0023
0.003	-0.1148
0.0015	-0.12
0.0015	-0.1515
0.0015	-0.0878
0.003	0.0217
0.0052	0.06
0.0067	0.1642
0.0037	0.1635
0.0022	0.0037
0.0037	-0.1305
0.0045	-0.111
0.009	-0.1253
0.0067	-0.1748
0.0082	-0.0975
0.0105	-0.0443
0.0105	-0.03
0.0112	-0.0075
0.012	0.0255
0.0127	0.012
0.0082	-0.0143
0.0075	-0.0091
0.006	-0.0008
0.006	-0.0128
0.006	-0.045
0.0045	-0.0488
0.0052	-0.024
0.0052	0
0.0052	0.0157
0.006	0.03
0.0045	0.0532
0.003	0.0427
0.0045	0.0285
0.0007	0.0097
0.0052	-0.027
0.0082	-0.0361
0.0075	-0.0165
0.0052	-0.0143
0.0037	-0.03
0.0015	0.0082
0	-0.015
0.0037	-0.0368
0.0015	-0.0375
0.0037	-0.0578
0.0052	-0.024
0.0082	0.0315
0.0097	0.1027
0.003	0.0855
0.0022	0.0997
0.0015	0.207
0.0015	0.1455
-0.0046	0.0127
-0.0023	0.0052
0.0015	0.0142
0.0052	0.039
0.0075	0.1485
0.003	0.1305
0.003	0.0037
0.003	-0.0135
0.0045	0
0.0052	-0.0165
0.0015	-0.0713
0.0007	-0.1193
-0.0015	-0.12
-0.0023	-0.1088
0	-0.0975
0.0007	-0.1485
0.0007	-0.2078
0.0015	-0.1485
0.0082	-0.0046
0.0082	0.1282
0.0015	0.0645
0.0082	-0.033
0.0097	0.084
0.0052	0.1455
0.0045	0.1455
0.0037	0.09
0.0037	0.0255
0.0015	0.0082
0.0052	-0.1028
0.0105	-0.0533
0.0082	0.0105
0.006	-0.042
0.0105	0.0015
0.012	-0.0008
0.009	-0.03
0.003	-0.033
0	-0.0091
0.0015	-0.0015
0.006	-0.0353
0.0082	-0.0458
0.0075	-0.0218
0.0097	-0.0046
0.0067	-0.0353
0.0067	-0.0091
0.0045	-0.012
0.003	-0.0105
0.003	0.0315
0.0045	0.0397
0.0082	0.0652
0.003	0.0532
0.0022	0.0217
0.0052	-0.024
0.0037	-0.0533
0.0052	-0.0863
0.0045	-0.0638
0.0045	0.003
0.0037	0.0157
0.0037	0.027
0.0045	0.0487
0.0037	0.0585
0.003	0.0165
0.006	0.009
0.0067	-0.048
0.0082	-0.1875
0.0052	-0.2423
0.0037	-0.2093
0.009	-0.1538
0.0067	-0.0856
0.0022	0.0352
0.003	0.186
0.003	0.315
0.003	0.4327
0.003	0.3487
0.0037	0.021
0.003	-0.057
0.0015	-0.0128
0.006	-0.0668
0.0067	-0.0645
0.0052	-0.0683
0.0082	-0.012
0.0105	0.0645
0.009	0.0855
0.0045	-0.0278
0.0022	-0.0953
-0.0015	0.0375
-0.0046	0.0622
-0.0008	-0.0181
-0.0008	-0.012
0.0007	-0.0383
0.0045	-0.0878
0.0045	-0.0436
0.003	0.0292
0.0037	0.0975
0.0052	0.2272
0.0015	0.1927
0.003	0.0705
0.006	0.0435
0.0045	-0.0075
0.0022	-0.0645
0.0007	-0.0856
-0.0015	-0.1013
-0.0008	-0.1628
0.0045	-0.2138
0.0067	-0.114
0.0052	0.003
0.0015	0.0375
0.0045	0.0517
0.0037	0.0525
0.0045	0.0645
0.0067	0.0645
0.0045	-0.0443
0.0045	-0.1696
0.0067	-0.1493
0.0082	-0.0878
0.0105	-0.0608
0.0112	-0.015
0.0127	-0.0068
0.0142	0.0487
0.0135	0.1912
0.0105	0.303
0.0127	0.249
0.0112	0.0292
0.012	-0.0578
0.0127	-0.0263
0.009	-0.0008
0.003	0.0082
0.0007	-0.0128
0.003	-0.0308
0.0015	-0.0248
0.003	-0.0053
0.003	-0.0248
0.0022	-0.0105
-0.0015	-0.0256
0	-0.0338
0.0015	0.027
-0.0008	0.096
-0.0008	0.0562
0.0015	-0.0068
0.003	0.0607
0.0052	0.0667
0.0045	-0.0165
0.006	-0.0706
0.0067	-0.0765
0.0067	-0.0915
0.0082	-0.1763
0.0105	-0.21
0.0097	-0.1658
0.0105	-0.09
0.0105	0.0202
0.0142	0.1027
0.0135	0.1507
0.0082	0.3225
0.009	0.4402
0.0067	0.2175
0.0067	-0.0225
0.006	-0.0465
0.003	-0.0945
0.0022	-0.1313
0.003	-0.1305
0.003	-0.1028
0.0067	-0.0278
0.0045	-0.0015
0.0022	0.0097
0.0052	0.006
0.0052	0.066
0.0045	0.1717
0.0022	0.0487
0.0015	-0.1163
0.0015	-0.132
0.0015	-0.0698
0.003	-0.03
0.0015	-0.0218
-0.0008	0.021
-0.0015	-0.0203
0	-0.0436
0.0007	-0.03
0.0007	-0.0323
0.0015	-0.0368
0.0067	-0.0698
0.0067	-0.12
0.0067	-0.12
0.0075	-0.0278
0.0067	-0.0008
0.0075	-0.042
0.006	-0.0458
0.0022	-0.0195
0.0015	0.012
0.0052	0.0127
0.0037	0.015
0.0022	0.0082
0	0.0105
0.0007	0.0247
0.003	0.0052
0.0015	-0.003
0.0045	-0.054
0.003	-0.132
0.006	-0.1268
0.009	-0.0788
0.006	-0.024
0.0082	0.0675
0.0105	0.2137
0.0082	0.3165
0.0052	0.3022
0.012	0.3255
0.012	0.1957
0.0052	-0.003
0.0067	0.0052
0.0037	-0.0143
0.0015	-0.0075
0.0037	-0.054
0.0052	-0.099
0.0075	-0.0308
0.0052	0.042
0.0067	0.156
0.0067	0.1027
0.0052	0.0217
0.0075	-0.0083
0.0075	-0.063
0.0045	-0.0436
0.0067	-0.0608
0.0067	-0.0428
0.0045	-0.0308
0.0075	-0.0353
0.0097	-0.0008
0.0067	-0.0256
0.0045	-0.0083
0.0075	0.009
0.0067	-0.0038
0.009	-0.012
0.0052	-0.0233
0.0007	-0.0413
0.0067	-0.0278
0.0022	-0.0398
0.0022	-0.03
0.003	-0.003
0	-0.057
0.0015	-0.0788
0.0037	-0.0413
0.003	-0.0218
0.0022	-0.0338
0.0045	-0.054
0.0007	-0.0248
0.0022	-0.0068
0.0075	0.009
0.0015	0.03
0.003	0.0172
0.0067	0.0547
0.0082	0.1605
0.0112	0.117
0.0082	-0.054
0.003	-0.0683
0.0007	-0.1283
0.003	-0.1756
-0.0008	-0.0548
-0.0023	-0.0181
0.0022	0.0712
0.0022	0.1447
0.0022	0.0727
0.0007	0.0225
0.003	0.0105
0.0075	0.0397
0.009	0.0622
0.012	0.0577
0.0082	0.0652
0.0067	0.0712
0.0037	0.0712
0.0037	0.063
0.0022	0.0075
0.003	0.0082
0.0067	0.0375
0.003	-0.0225
0.0037	-0.0585
0.0045	-0.0953
0.0082	-0.09
0.0052	-0.039
0.0067	-0.0608
0.0105	-0.0856
0.009	-0.0758
0.0127	0.0082
0.0082	0.033
0.0075	-0.105
0.0082	-0.213
0.006	-0.165
0.0067	-0.1223
0.0052	-0.0856
0.0052	0.0135
0.003	0.0742
0.0045	0.144
0.0037	0.2565
0.003	0.3082
0.0037	0.141
0.0037	0.039
0.0045	0.117
0.003	0.0855
0.0015	0.0735
0.0052	0.0697
0.0045	-0.0053
0.0015	-0.0608
0.0052	-0.015
0.0045	0.0142
0.0015	0.0337
0.0007	0.0862
-0.0046	0.0795
-0.0023	0.0892
0.0015	-0.0173
0.0015	-0.105
0.0007	-0.0923
0.0015	-0.135
0.0015	-0.129
0.0015	-0.1335
0.003	-0.1455
0.0045	-0.132
0.0067	-0.1148
0.0082	-0.0181
0.0052	0.0217
0.0052	-0.0098
0.0052	-0.003
0.009	-0.0361
0.0112	-0.0878
0.0067	-0.0721
0.0067	-0.0181
0.0052	-0.0436
0.0067	-0.1381
0.0097	-0.1148
0.0015	0.0082
0.0045	0.0562
0.012	0.069
0.0097	0.063
0.0067	0.1035
0.0082	0.2325
0.0105	0.2955
0.012	0.27
0.0082	0.1372
0.0052	0.0337
0.0052	0.0435
0.0045	-0.0023
0.0015	-0.0495
0.0015	-0.1245
0.0052	-0.1418
0.003	-0.063
0.0007	-0.0225
0.0037	0.0037
0.003	0.0337
0.0007	0.0465
0.0015	0.0682
0.0045	0.105
0.006	0.0547
0.0052	-0.0038
0.0045	-0.012
0.0045	-0.0338
0.0052	-0.0218
0.0015	-0.0256
0.0022	-0.0128
0.0045	0.024
0.0082	0.009
0.0097	0.0112
0.0075	0.0562
0.0045	0.1237
0.0045	0.0765
0.0007	-0.0128
0.0015	-0.0346
0.0022	-0.0893
0.003	-0.1155
0.0015	-0.1238
0	-0.135
0.0045	-0.1426
0.0052	-0.1148
0.006	-0.0675
0.0082	-0.0511
0.0097	0.0307
0.0082	0.0997
0.0045	0.0892
0.0067	0.042
0.0067	0.051
0.006	0.0607
0.0067	0.0397
0.0067	0.0262
0.0052	0.0315
0.0045	0.039
0.0045	0.0015
0.0007	0.015
0.0015	0.0127
0.0015	-0.012
0.0045	-0.0158
0.0052	-0.0038
0.0022	0.036
0.0067	0.0127
0.0045	0.009
0.0015	0.024
0.0045	-0.0083
0.003	-0.09
0.003	-0.1268
0.0045	-0.0765
0.0045	-0.0706
0.0067	0.0097
0.0067	0.0712
0.0052	0.0412
0.0052	0.0892
0.009	0.1605
0.0097	0.1162
0.012	0.009
0.012	-0.0203
0.009	-0.0361
0.0052	-0.012
0.0082	-0.0113
0.0127	-0.0128
0.0082	-0.0053
0.009	-0.0691
0.0075	-0.066
0.0045	-0.0856
0.006	-0.0788
0.003	-0.027
0.0045	-0.0488
0.003	-0.0511
0.0015	-0.0361
0.0015	-0.06
0.0015	-0.0398
0.0007	0.0277
0.0007	0.0532
0.0007	0.0532
0.0007	0.012
0.0015	-0.006
0.0045	-0.0015
0.0015	-0.045
-0.0008	-0.075
0.0045	-0.0765
0.0037	-0.015
-0.0008	0.0277
0	0.0892
0.0045	0.1545
0.0082	0.1282
0.0075	0.1755
0.0097	0.2662
0.0067	0.1845
0.0045	0.0277
0.0037	-0.0143
0.003	-0.0218
0.003	-0.012
0	-0.0413
0.003	-0.1441
0.0045	-0.165
0.003	-0.1741
0.003	-0.1463
0.0067	-0.0721
0.0097	-0.0225
0.0082	0.0795
0.009	0.2122
0.0052	0.2707
0.0067	0.1177
0.0067	-0.0225
0.0067	0.006
0.0135	-0.003
0.009	0.0427
0.0045	0.0187
0.0067	-0.0511
0.0052	-0.0068
0.0015	-0.0256
0.0045	-0.0405
0.0067	-0.0278
0.0045	-0.0495
0.0052	-0.114
0.0015	-0.09
-0.0023	-0.0315
0.003	-0.0398
0.0052	-0.0128
0.0067	-0.0181
0.0052	-0.0188
0.003	-0.0015
0.0052	0.0165
0.0052	0.0412
0.0052	0.051
0.0007	0.0315
0.0015	-0.0068
0.0045	-0.0098
0.0067	-0.0256
0.0045	-0.015
0	-0.0075
0.0037	-0.0105
0.0015	0.009
0.003	0.0367
0.0022	0.045
0.003	-0.0038
0.006	0.009
0.0082	0.0322
0.0112	0.0195
0.0067	0.0052
0.0067	-0.0046
0.0037	0.0142
0.0007	0.003
0.0052	-0.0038
0.0045	0.0007
0.0082	-0.021
0.0112	0.0067
0.0067	0.0367
0.0037	0.015
0.0015	-0.0075
0.003	-0.0248
0.0052	-0.0413
0.0022	-0.0473
0	-0.1328
0.0015	-0.177
0.0045	-0.0795
0.0082	-0.0188
0.009	0.0075
0.006	0.0502
0.003	0.1162
0.003	0.174
0.0037	0.201
0.0045	0.1837
0.0045	0.0262
0.0082	-0.0968
0.0075	-0.105
0.0045	-0.1065
0.0052	-0.0833
0.0067	-0.0383
0.0045	0.0322
0.0052	0.0765
0.006	0.1665
0.0097	0.204
0.0127	0.15
0.0052	0.0367
0.003	-0.075
0.0037	-0.0015
0.003	0.0682
0.0022	0.0097
0.0015	-0.114
0.003	-0.0511
0.0067	0.006
0.0067	-0.0173
0.0022	0.0427
0.0007	-0.0143
0.0037	-0.0698
0.0067	-0.0938
0.0045	-0.084
0.0045	-0.0623
0.0052	-0.066
0.0037	-0.0143
0.003	-0.0278
0.0037	-0.0263
0.0045	0.0225
0.0015	0.063
0.0022	0.069
0.0037	0.0397
